# Temperatura_=_28.79
# Concentracion g/m^3_=_5700.0
# C_Vs_to_Am_M_A/Vsm_=_65563218390.804596
# pendiente_HvsI_1/m_=_3716.3
# ordenada_HvsI_A/m_=_1297.0
# frecuencia_Hz_=_301577.56089777226

Tiempo_(s)	Campo_(V.s)	Magnetizacion_(V.s)	Campo_(kA/m)	Magnetizacion_(A/m)
0.000000e+00	-8.264736e-06	-4.106974e-09	-5.761114e+01	-2.750681e+02
1.000000e-08	-8.262148e-06	-4.112841e-09	-5.759310e+01	-2.748841e+02
2.000000e-08	-8.256835e-06	-4.112385e-09	-5.755607e+01	-2.748573e+02
3.000000e-08	-8.248910e-06	-4.109058e-09	-5.750082e+01	-2.749642e+02
4.000000e-08	-8.238159e-06	-4.107650e-09	-5.742588e+01	-2.750201e+02
5.000000e-08	-8.224459e-06	-4.102478e-09	-5.733038e+01	-2.747757e+02
6.000000e-08	-8.207813e-06	-4.086842e-09	-5.721435e+01	-2.740999e+02
7.000000e-08	-8.188494e-06	-4.039618e-09	-5.707968e+01	-2.731175e+02
8.000000e-08	-8.166640e-06	-4.037028e-09	-5.692734e+01	-2.721878e+02
9.000000e-08	-8.141677e-06	-4.143861e-09	-5.675333e+01	-2.717039e+02
1.000000e-07	-8.113346e-06	-4.178817e-09	-5.655584e+01	-2.718293e+02
1.100000e-07	-8.081941e-06	-4.142197e-09	-5.633693e+01	-2.723508e+02
1.200000e-07	-8.047633e-06	-4.153915e-09	-5.609778e+01	-2.727656e+02
1.300000e-07	-8.010621e-06	-4.176173e-09	-5.583977e+01	-2.725714e+02
1.400000e-07	-7.971315e-06	-4.028058e-09	-5.556579e+01	-2.715830e+02
1.500000e-07	-7.929597e-06	-3.954970e-09	-5.527498e+01	-2.700655e+02
1.600000e-07	-7.884997e-06	-4.093644e-09	-5.496409e+01	-2.685886e+02
1.700000e-07	-7.837674e-06	-3.967422e-09	-5.463421e+01	-2.676851e+02
1.800000e-07	-7.787490e-06	-4.035222e-09	-5.428439e+01	-2.675318e+02
1.900000e-07	-7.734099e-06	-4.106693e-09	-5.391222e+01	-2.678542e+02
2.000000e-07	-7.677829e-06	-4.007765e-09	-5.351998e+01	-2.681138e+02
2.100000e-07	-7.618793e-06	-4.048772e-09	-5.310845e+01	-2.678469e+02
2.200000e-07	-7.557051e-06	-3.982575e-09	-5.267807e+01	-2.669326e+02
2.300000e-07	-7.492600e-06	-4.010030e-09	-5.222880e+01	-2.656250e+02
2.400000e-07	-7.425284e-06	-3.978437e-09	-5.175956e+01	-2.643464e+02
2.500000e-07	-7.355247e-06	-3.965131e-09	-5.127135e+01	-2.633985e+02
2.600000e-07	-7.282479e-06	-3.972812e-09	-5.076411e+01	-2.627876e+02
2.700000e-07	-7.206901e-06	-3.963231e-09	-5.023727e+01	-2.622667e+02
2.800000e-07	-7.128476e-06	-3.975975e-09	-4.969059e+01	-2.615405e+02
2.900000e-07	-7.047263e-06	-3.889326e-09	-4.912448e+01	-2.604744e+02
3.000000e-07	-6.963553e-06	-3.909332e-09	-4.854096e+01	-2.591627e+02
3.100000e-07	-6.877564e-06	-3.904904e-09	-4.794156e+01	-2.578249e+02
3.200000e-07	-6.789266e-06	-3.887824e-09	-4.732606e+01	-2.566254e+02
3.300000e-07	-6.698506e-06	-3.885371e-09	-4.669340e+01	-2.555561e+02
3.400000e-07	-6.605348e-06	-3.840387e-09	-4.604402e+01	-2.544636e+02
3.500000e-07	-6.509799e-06	-3.824170e-09	-4.537797e+01	-2.531849e+02
3.600000e-07	-6.411818e-06	-3.810287e-09	-4.469497e+01	-2.516820e+02
3.700000e-07	-6.311536e-06	-3.801619e-09	-4.399593e+01	-2.500710e+02
3.800000e-07	-6.208978e-06	-3.759886e-09	-4.328103e+01	-2.485298e+02
3.900000e-07	-6.104159e-06	-3.747493e-09	-4.255037e+01	-2.471606e+02
4.000000e-07	-5.997168e-06	-3.743411e-09	-4.180457e+01	-2.459110e+02
4.100000e-07	-5.888116e-06	-3.720030e-09	-4.104440e+01	-2.446104e+02
4.200000e-07	-5.776940e-06	-3.687805e-09	-4.026942e+01	-2.430887e+02
4.300000e-07	-5.663515e-06	-3.652387e-09	-3.947876e+01	-2.412882e+02
4.400000e-07	-5.547917e-06	-3.643141e-09	-3.867297e+01	-2.392909e+02
4.500000e-07	-5.430198e-06	-3.631487e-09	-3.785238e+01	-2.372499e+02
4.600000e-07	-5.310329e-06	-3.601652e-09	-3.701680e+01	-2.352826e+02
4.700000e-07	-5.188504e-06	-3.553879e-09	-3.616760e+01	-2.334023e+02
4.800000e-07	-5.064867e-06	-3.523154e-09	-3.530576e+01	-2.315277e+02
4.900000e-07	-4.939444e-06	-3.503588e-09	-3.443147e+01	-2.295512e+02
5.000000e-07	-4.812236e-06	-3.477821e-09	-3.354474e+01	-2.274075e+02
5.100000e-07	-4.683258e-06	-3.437763e-09	-3.264567e+01	-2.250970e+02
5.200000e-07	-4.552614e-06	-3.397532e-09	-3.173499e+01	-2.226586e+02
5.300000e-07	-4.420320e-06	-3.368953e-09	-3.081280e+01	-2.201269e+02
5.400000e-07	-4.286478e-06	-3.339507e-09	-2.987983e+01	-2.175097e+02
5.500000e-07	-4.151065e-06	-3.293691e-09	-2.893591e+01	-2.147976e+02
5.600000e-07	-4.014031e-06	-3.242848e-09	-2.798067e+01	-2.119870e+02
5.700000e-07	-3.875518e-06	-3.204457e-09	-2.701514e+01	-2.090888e+02
5.800000e-07	-3.735482e-06	-3.169904e-09	-2.603899e+01	-2.061142e+02
5.900000e-07	-3.593857e-06	-3.123105e-09	-2.505176e+01	-2.030535e+02
6.000000e-07	-3.450808e-06	-3.062478e-09	-2.405461e+01	-1.998719e+02
6.100000e-07	-3.306482e-06	-3.009307e-09	-2.304855e+01	-1.965304e+02
6.200000e-07	-3.160983e-06	-2.967648e-09	-2.203432e+01	-1.930145e+02
6.300000e-07	-3.014347e-06	-2.924553e-09	-2.101216e+01	-1.893438e+02
6.400000e-07	-2.866741e-06	-2.863570e-09	-1.998324e+01	-1.855524e+02
6.500000e-07	-2.718235e-06	-2.798234e-09	-1.894805e+01	-1.816549e+02
6.600000e-07	-2.568751e-06	-2.739057e-09	-1.790604e+01	-1.776288e+02
6.700000e-07	-2.418344e-06	-2.680951e-09	-1.685759e+01	-1.734308e+02
6.800000e-07	-2.267001e-06	-2.612804e-09	-1.580263e+01	-1.690345e+02
6.900000e-07	-2.114810e-06	-2.538005e-09	-1.474174e+01	-1.644555e+02
7.000000e-07	-1.961936e-06	-2.470410e-09	-1.367610e+01	-1.597373e+02
7.100000e-07	-1.808396e-06	-2.407464e-09	-1.260582e+01	-1.549051e+02
7.200000e-07	-1.654190e-06	-2.335822e-09	-1.153089e+01	-1.499244e+02
7.300000e-07	-1.499395e-06	-2.251088e-09	-1.045186e+01	-1.447036e+02
7.400000e-07	-1.344069e-06	-2.161852e-09	-9.369126e+00	-1.391470e+02
7.500000e-07	-1.188237e-06	-2.071369e-09	-8.282866e+00	-1.332219e+02
7.600000e-07	-1.031909e-06	-1.981975e-09	-7.193147e+00	-1.269861e+02
7.700000e-07	-8.751972e-07	-1.881635e-09	-6.100753e+00	-1.205482e+02
7.800000e-07	-7.182373e-07	-1.775748e-09	-5.006629e+00	-1.139829e+02
7.900000e-07	-5.610281e-07	-1.676731e-09	-3.910769e+00	-1.072630e+02
8.000000e-07	-4.036381e-07	-1.578593e-09	-2.813647e+00	-1.002608e+02
8.100000e-07	-2.461033e-07	-1.466756e-09	-1.715517e+00	-9.282209e+01
8.200000e-07	-8.841487e-08	-1.338652e-09	-6.163151e-01	-8.485961e+01
8.300000e-07	6.928278e-08	-1.207804e-09	4.829507e-01	-7.639534e+01
8.400000e-07	2.268605e-07	-1.075841e-09	1.581381e+00	-6.751601e+01
8.500000e-07	3.843694e-07	-9.379242e-10	2.679330e+00	-5.827198e+01
8.600000e-07	5.417955e-07	-7.856104e-10	3.776703e+00	-4.859539e+01
8.700000e-07	6.990251e-07	-6.218634e-10	4.872707e+00	-3.830409e+01
8.800000e-07	8.559791e-07	-4.544411e-10	5.966789e+00	-2.719837e+01
8.900000e-07	1.012615e-06	-2.763493e-10	7.058655e+00	-1.519036e+01
9.000000e-07	1.168907e-06	-8.186133e-11	8.148123e+00	-2.381025e+00
9.100000e-07	1.324735e-06	1.236020e-10	9.234351e+00	1.096539e+01
9.200000e-07	1.480070e-06	3.282704e-10	1.031715e+01	2.453002e+01
9.300000e-07	1.634892e-06	5.273588e-10	1.139637e+01	3.805789e+01
9.400000e-07	1.789076e-06	7.286178e-10	1.247115e+01	5.141249e+01
9.500000e-07	1.942583e-06	9.358451e-10	1.354120e+01	6.454328e+01
9.600000e-07	2.095420e-06	1.137310e-09	1.460658e+01	7.740484e+01
9.700000e-07	2.247553e-06	1.322699e-09	1.566706e+01	8.989475e+01
9.800000e-07	2.398886e-06	1.496721e-09	1.672196e+01	1.018551e+02
9.900000e-07	2.549322e-06	1.668411e-09	1.777060e+01	1.131296e+02
1.000000e-06	2.698771e-06	1.833840e-09	1.881237e+01	1.236287e+02
1.010000e-06	2.847194e-06	1.984060e-09	1.984699e+01	1.333532e+02
1.020000e-06	2.994684e-06	2.117482e-09	2.087510e+01	1.423655e+02
1.030000e-06	3.141168e-06	2.242961e-09	2.189620e+01	1.507365e+02
1.040000e-06	3.286512e-06	2.363849e-09	2.290935e+01	1.585113e+02
1.050000e-06	3.430667e-06	2.475338e-09	2.391421e+01	1.657145e+02
1.060000e-06	3.573537e-06	2.574418e-09	2.491012e+01	1.723799e+02
1.070000e-06	3.715006e-06	2.666941e-09	2.589626e+01	1.785708e+02
1.080000e-06	3.855029e-06	2.757953e-09	2.687232e+01	1.843689e+02
1.090000e-06	3.993647e-06	2.846885e-09	2.783859e+01	1.898403e+02
1.100000e-06	4.130748e-06	2.928348e-09	2.879428e+01	1.950089e+02
1.110000e-06	4.266336e-06	2.999471e-09	2.973943e+01	1.998629e+02
1.120000e-06	4.400404e-06	3.066080e-09	3.067398e+01	2.043906e+02
1.130000e-06	4.532818e-06	3.131181e-09	3.159699e+01	2.086148e+02
1.140000e-06	4.663607e-06	3.192746e-09	3.250869e+01	2.125967e+02
1.150000e-06	4.792769e-06	3.248570e-09	3.340904e+01	2.164032e+02
1.160000e-06	4.920254e-06	3.303040e-09	3.429770e+01	2.200634e+02
1.170000e-06	5.046026e-06	3.357654e-09	3.517442e+01	2.235523e+02
1.180000e-06	5.170039e-06	3.411280e-09	3.603888e+01	2.268167e+02
1.190000e-06	5.292228e-06	3.458494e-09	3.689063e+01	2.298253e+02
1.200000e-06	5.412520e-06	3.501264e-09	3.772915e+01	2.326048e+02
1.210000e-06	5.530783e-06	3.543766e-09	3.855353e+01	2.352315e+02
1.220000e-06	5.646891e-06	3.587064e-09	3.936288e+01	2.377845e+02
1.230000e-06	5.760793e-06	3.627087e-09	4.015686e+01	2.402954e+02
1.240000e-06	5.872588e-06	3.662981e-09	4.093615e+01	2.427323e+02
1.250000e-06	5.982342e-06	3.697531e-09	4.170122e+01	2.450302e+02
1.260000e-06	6.089996e-06	3.732640e-09	4.245165e+01	2.471419e+02
1.270000e-06	6.195507e-06	3.768240e-09	4.318713e+01	2.490720e+02
1.280000e-06	6.298759e-06	3.799101e-09	4.390687e+01	2.508690e+02
1.290000e-06	6.399687e-06	3.827221e-09	4.461041e+01	2.525859e+02
1.300000e-06	6.498255e-06	3.855716e-09	4.529750e+01	2.542439e+02
1.310000e-06	6.594462e-06	3.884066e-09	4.596813e+01	2.558271e+02
1.320000e-06	6.688367e-06	3.910893e-09	4.662272e+01	2.573097e+02
1.330000e-06	6.779925e-06	3.934912e-09	4.726095e+01	2.586904e+02
1.340000e-06	6.869123e-06	3.955764e-09	4.788272e+01	2.600015e+02
1.350000e-06	6.955934e-06	3.977780e-09	4.848785e+01	2.612853e+02
1.360000e-06	7.040314e-06	4.002459e-09	4.907604e+01	2.625584e+02
1.370000e-06	7.122213e-06	4.025371e-09	4.964694e+01	2.637948e+02
1.380000e-06	7.201568e-06	4.045170e-09	5.020009e+01	2.649435e+02
1.390000e-06	7.278261e-06	4.063213e-09	5.073470e+01	2.659677e+02
1.400000e-06	7.352200e-06	4.080838e-09	5.125011e+01	2.668727e+02
1.410000e-06	7.423467e-06	4.097487e-09	5.174689e+01	2.677010e+02
1.420000e-06	7.492154e-06	4.112598e-09	5.222569e+01	2.684983e+02
1.430000e-06	7.558173e-06	4.125861e-09	5.268589e+01	2.692807e+02
1.440000e-06	7.621439e-06	4.138234e-09	5.312690e+01	2.700293e+02
1.450000e-06	7.682103e-06	4.151968e-09	5.354977e+01	2.707157e+02
1.460000e-06	7.740098e-06	4.166641e-09	5.395404e+01	2.713339e+02
1.470000e-06	7.795288e-06	4.180112e-09	5.433876e+01	2.719095e+02
1.480000e-06	7.847472e-06	4.191808e-09	5.470251e+01	2.724759e+02
1.490000e-06	7.896448e-06	4.202169e-09	5.504391e+01	2.730398e+02
1.500000e-06	7.942503e-06	4.211246e-09	5.536494e+01	2.735682e+02
1.510000e-06	7.985790e-06	4.221209e-09	5.566669e+01	2.740120e+02
1.520000e-06	8.026227e-06	4.230830e-09	5.594856e+01	2.743505e+02
1.530000e-06	8.063904e-06	4.237589e-09	5.621120e+01	2.746166e+02
1.540000e-06	8.098768e-06	4.243849e-09	5.645423e+01	2.748788e+02
1.550000e-06	8.130738e-06	4.251885e-09	5.667708e+01	2.751894e+02
1.560000e-06	8.159910e-06	4.261166e-09	5.688043e+01	2.755400e+02
1.570000e-06	8.186211e-06	4.268082e-09	5.706376e+01	2.758628e+02
1.580000e-06	8.209543e-06	4.272751e-09	5.722641e+01	2.760809e+02
1.590000e-06	8.229999e-06	4.278037e-09	5.736900e+01	2.761676e+02
1.600000e-06	8.247578e-06	4.283152e-09	5.749154e+01	2.761664e+02
1.610000e-06	8.262165e-06	4.285873e-09	5.759322e+01	2.761518e+02
1.620000e-06	8.273580e-06	4.286543e-09	5.767279e+01	2.761623e+02
1.630000e-06	8.281841e-06	4.286855e-09	5.773037e+01	2.761656e+02
1.640000e-06	8.287188e-06	4.288500e-09	5.776765e+01	2.760905e+02
1.650000e-06	8.289643e-06	4.292413e-09	5.778476e+01	2.759040e+02
1.660000e-06	8.289229e-06	4.294131e-09	5.778188e+01	2.756666e+02
1.670000e-06	8.286125e-06	4.287791e-09	5.776024e+01	2.755048e+02
1.680000e-06	8.280272e-06	4.286464e-09	5.771944e+01	2.755079e+02
1.690000e-06	8.271621e-06	4.285037e-09	5.765913e+01	2.756226e+02
1.700000e-06	8.260120e-06	4.279155e-09	5.757897e+01	2.756417e+02
1.710000e-06	8.245714e-06	4.278110e-09	5.747855e+01	2.753231e+02
1.720000e-06	8.228706e-06	4.303422e-09	5.735998e+01	2.745746e+02
1.730000e-06	8.209292e-06	4.325742e-09	5.722466e+01	2.735703e+02
1.740000e-06	8.187020e-06	4.213314e-09	5.706941e+01	2.726942e+02
1.750000e-06	8.161057e-06	4.148260e-09	5.688842e+01	2.723166e+02
1.760000e-06	8.131170e-06	4.166222e-09	5.668009e+01	2.725388e+02
1.770000e-06	8.098128e-06	4.130052e-09	5.644976e+01	2.730821e+02
1.780000e-06	8.062716e-06	4.123107e-09	5.620292e+01	2.734189e+02
1.790000e-06	8.025092e-06	4.302162e-09	5.594065e+01	2.730831e+02
1.800000e-06	7.985392e-06	4.243196e-09	5.566392e+01	2.719680e+02
1.810000e-06	7.943292e-06	4.133908e-09	5.537045e+01	2.704114e+02
1.820000e-06	7.898260e-06	4.261686e-09	5.505654e+01	2.690042e+02
1.830000e-06	7.850438e-06	4.109164e-09	5.472319e+01	2.682346e+02
1.840000e-06	7.799432e-06	4.161199e-09	5.436764e+01	2.681972e+02
1.850000e-06	7.745249e-06	4.126708e-09	5.398995e+01	2.685499e+02
1.860000e-06	7.688348e-06	4.082558e-09	5.359330e+01	2.687415e+02
1.870000e-06	7.628628e-06	4.204076e-09	5.317702e+01	2.683553e+02
1.880000e-06	7.566285e-06	4.100960e-09	5.274244e+01	2.673430e+02
1.890000e-06	7.501191e-06	4.169028e-09	5.228869e+01	2.660089e+02
1.900000e-06	7.433236e-06	4.069678e-09	5.181499e+01	2.647740e+02
1.910000e-06	7.362453e-06	4.054041e-09	5.132158e+01	2.638943e+02
1.920000e-06	7.288837e-06	4.063660e-09	5.080842e+01	2.633217e+02
1.930000e-06	7.212492e-06	4.011537e-09	5.027624e+01	2.627828e+02
1.940000e-06	7.133364e-06	4.088311e-09	4.972467e+01	2.619984e+02
1.950000e-06	7.051741e-06	3.985785e-09	4.915570e+01	2.608752e+02
1.960000e-06	6.967625e-06	4.030921e-09	4.856935e+01	2.595415e+02
1.970000e-06	6.880863e-06	3.971826e-09	4.796455e+01	2.582199e+02
1.980000e-06	6.791654e-06	3.929282e-09	4.734271e+01	2.570491e+02
1.990000e-06	6.700083e-06	3.930847e-09	4.670439e+01	2.559888e+02
2.000000e-06	6.606218e-06	3.903565e-09	4.605008e+01	2.548721e+02
2.010000e-06	6.510029e-06	3.930692e-09	4.537957e+01	2.535508e+02
2.020000e-06	6.411455e-06	3.859351e-09	4.469245e+01	2.520160e+02
2.030000e-06	6.310527e-06	3.853079e-09	4.398890e+01	2.504042e+02
2.040000e-06	6.207301e-06	3.791698e-09	4.326934e+01	2.488897e+02
2.050000e-06	6.101842e-06	3.800250e-09	4.253422e+01	2.475497e+02
2.060000e-06	5.994255e-06	3.777354e-09	4.178426e+01	2.463048e+02
2.070000e-06	5.884565e-06	3.754459e-09	4.101964e+01	2.449745e+02
2.080000e-06	5.772731e-06	3.729424e-09	4.024008e+01	2.434024e+02
2.090000e-06	5.658659e-06	3.688313e-09	3.944492e+01	2.415568e+02
2.100000e-06	5.542355e-06	3.667589e-09	3.863419e+01	2.395395e+02
2.110000e-06	5.423904e-06	3.613164e-09	3.780850e+01	2.375050e+02
2.120000e-06	5.303428e-06	3.589237e-09	3.696870e+01	2.355551e+02
2.130000e-06	5.181118e-06	3.551521e-09	3.611611e+01	2.336830e+02
2.140000e-06	5.056980e-06	3.546316e-09	3.525078e+01	2.317970e+02
2.150000e-06	4.931030e-06	3.504651e-09	3.437282e+01	2.297930e+02
2.160000e-06	4.803318e-06	3.467245e-09	3.348258e+01	2.276173e+02
2.170000e-06	4.673910e-06	3.422452e-09	3.258050e+01	2.252800e+02
2.180000e-06	4.542787e-06	3.391022e-09	3.166649e+01	2.228225e+02
2.190000e-06	4.410043e-06	3.353079e-09	3.074116e+01	2.202752e+02
2.200000e-06	4.275705e-06	3.305463e-09	2.980473e+01	2.176413e+02
2.210000e-06	4.139726e-06	3.255883e-09	2.885686e+01	2.149109e+02
2.220000e-06	4.002179e-06	3.209134e-09	2.789806e+01	2.120830e+02
2.230000e-06	3.863116e-06	3.176204e-09	2.692869e+01	2.091701e+02
2.240000e-06	3.722656e-06	3.128574e-09	2.594958e+01	2.061811e+02
2.250000e-06	3.580856e-06	3.078844e-09	2.496114e+01	2.031013e+02
2.260000e-06	3.437764e-06	3.024072e-09	2.396368e+01	1.998931e+02
2.270000e-06	3.293422e-06	2.978579e-09	2.295751e+01	1.965200e+02
2.280000e-06	3.147873e-06	2.921646e-09	2.194293e+01	1.929736e+02
2.290000e-06	3.001109e-06	2.857837e-09	2.091989e+01	1.892783e+02
2.300000e-06	2.853319e-06	2.789154e-09	1.988968e+01	1.854674e+02
2.310000e-06	2.704594e-06	2.732776e-09	1.885296e+01	1.815490e+02
2.320000e-06	2.554952e-06	2.677690e-09	1.780985e+01	1.774949e+02
2.330000e-06	2.404455e-06	2.614965e-09	1.676078e+01	1.732618e+02
2.340000e-06	2.253019e-06	2.542206e-09	1.570516e+01	1.688299e+02
2.350000e-06	2.100737e-06	2.468660e-09	1.464364e+01	1.642221e+02
2.360000e-06	1.947728e-06	2.395906e-09	1.357706e+01	1.594825e+02
2.370000e-06	1.794066e-06	2.316906e-09	1.250593e+01	1.546278e+02
2.380000e-06	1.639739e-06	2.232855e-09	1.143015e+01	1.496114e+02
2.390000e-06	1.484741e-06	2.150534e-09	1.034971e+01	1.443360e+02
2.400000e-06	1.329184e-06	2.072899e-09	9.265365e+00	1.387128e+02
2.410000e-06	1.173241e-06	1.987369e-09	8.178334e+00	1.327251e+02
2.420000e-06	1.016976e-06	1.890792e-09	7.089052e+00	1.264445e+02
2.430000e-06	8.603301e-07	1.785301e-09	5.997119e+00	1.199802e+02
2.440000e-06	7.032932e-07	1.683911e-09	4.902458e+00	1.133921e+02
2.450000e-06	5.460142e-07	1.584101e-09	3.806111e+00	1.066326e+02
2.460000e-06	3.886270e-07	1.476815e-09	2.709009e+00	9.956239e+01
2.470000e-06	2.311055e-07	1.355363e-09	1.610971e+00	9.203291e+01
2.480000e-06	7.345332e-08	1.229549e-09	5.120223e-01	8.397571e+01
2.490000e-06	-8.428094e-08	1.103597e-09	-5.874986e-01	7.543000e+01
2.500000e-06	-2.419805e-07	9.709718e-10	-1.686778e+00	6.648399e+01
2.510000e-06	-3.995440e-07	8.276166e-10	-2.785108e+00	5.717108e+01
2.520000e-06	-5.569150e-07	6.772516e-10	-3.882097e+00	4.739970e+01
2.530000e-06	-7.139969e-07	5.239451e-10	-4.977071e+00	3.697545e+01
2.540000e-06	-8.707480e-07	3.563458e-10	-6.069738e+00	2.570953e+01
2.550000e-06	-1.027166e-06	1.664175e-10	-7.160085e+00	1.354480e+01
2.560000e-06	-1.183220e-06	-3.954190e-11	-8.247894e+00	6.163300e-01
2.570000e-06	-1.338836e-06	-2.472203e-10	-9.332650e+00	-1.279251e+01
2.580000e-06	-1.493993e-06	-4.508196e-10	-1.041421e+01	-2.636663e+01
2.590000e-06	-1.648675e-06	-6.549470e-10	-1.149245e+01	-3.987078e+01
2.600000e-06	-1.802747e-06	-8.614754e-10	-1.256644e+01	-5.318840e+01
2.610000e-06	-1.956112e-06	-1.064236e-09	-1.363550e+01	-6.627614e+01
2.620000e-06	-2.108700e-06	-1.257979e-09	-1.469915e+01	-7.908143e+01
2.630000e-06	-2.260416e-06	-1.445283e-09	-1.575672e+01	-9.148982e+01
2.640000e-06	-2.411299e-06	-1.629178e-09	-1.680849e+01	-1.033385e+02
2.650000e-06	-2.561388e-06	-1.804218e-09	-1.785471e+01	-1.144791e+02
2.660000e-06	-2.710522e-06	-1.962389e-09	-1.889428e+01	-1.248380e+02
2.670000e-06	-2.858677e-06	-2.104023e-09	-1.992703e+01	-1.344303e+02
2.680000e-06	-3.005877e-06	-2.239047e-09	-2.095312e+01	-1.433240e+02
2.690000e-06	-3.152014e-06	-2.369378e-09	-2.197180e+01	-1.515866e+02
2.700000e-06	-3.296977e-06	-2.487458e-09	-2.298230e+01	-1.592583e+02
2.710000e-06	-3.440665e-06	-2.592019e-09	-2.398391e+01	-1.663628e+02
2.720000e-06	-3.583067e-06	-2.690022e-09	-2.497655e+01	-1.729385e+02
2.730000e-06	-3.724131e-06	-2.785098e-09	-2.595987e+01	-1.790538e+02
2.740000e-06	-3.863755e-06	-2.875052e-09	-2.693315e+01	-1.847903e+02
2.750000e-06	-4.001978e-06	-2.956204e-09	-2.789666e+01	-1.902077e+02
2.760000e-06	-4.138710e-06	-3.029139e-09	-2.884978e+01	-1.953222e+02
2.770000e-06	-4.273867e-06	-3.099529e-09	-2.979192e+01	-2.001187e+02
2.780000e-06	-4.407523e-06	-3.169717e-09	-3.072360e+01	-2.045898e+02
2.790000e-06	-4.539642e-06	-3.236152e-09	-3.164457e+01	-2.087660e+02
2.800000e-06	-4.670198e-06	-3.296837e-09	-3.255464e+01	-2.127128e+02
2.810000e-06	-4.799113e-06	-3.355692e-09	-3.345326e+01	-2.164932e+02
2.820000e-06	-4.926276e-06	-3.412082e-09	-3.433968e+01	-2.201266e+02
2.830000e-06	-5.051688e-06	-3.463347e-09	-3.521389e+01	-2.235799e+02
2.840000e-06	-5.175374e-06	-3.508545e-09	-3.607607e+01	-2.268001e+02
2.850000e-06	-5.297239e-06	-3.549791e-09	-3.692555e+01	-2.297646e+02
2.860000e-06	-5.417058e-06	-3.592034e-09	-3.776078e+01	-2.325110e+02
2.870000e-06	-5.534798e-06	-3.632667e-09	-3.858152e+01	-2.351201e+02
2.880000e-06	-5.650440e-06	-3.668798e-09	-3.938762e+01	-2.376657e+02
2.890000e-06	-5.763830e-06	-3.703104e-09	-4.017803e+01	-2.401678e+02
2.900000e-06	-5.874945e-06	-3.737937e-09	-4.095258e+01	-2.425854e+02
2.910000e-06	-5.983874e-06	-3.771750e-09	-4.171190e+01	-2.448528e+02
2.920000e-06	-6.090742e-06	-3.802163e-09	-4.245684e+01	-2.469307e+02
2.930000e-06	-6.195558e-06	-3.828392e-09	-4.318749e+01	-2.488333e+02
2.940000e-06	-6.298152e-06	-3.852721e-09	-4.390264e+01	-2.506132e+02
