# Temperatura_=_33.51
# Concentracion g/m^3_=_5700.0
# C_Vs_to_Am_M_A/Vsm_=_65563218390.804596
# pendiente_HvsI_1/m_=_3716.3
# ordenada_HvsI_A/m_=_1297.0
# frecuencia_Hz_=_301600.5932906678

Tiempo_(s)	Campo_(V.s)	Magnetizacion_(V.s)	Campo_(kA/m)	Magnetizacion_(A/m)
0.000000e+00	-8.252617e-06	-4.222018e-09	-5.760508e+01	-2.824720e+02
1.000000e-08	-8.250710e-06	-4.228401e-09	-5.759177e+01	-2.821374e+02
2.000000e-08	-8.245964e-06	-4.230483e-09	-5.755864e+01	-2.820129e+02
3.000000e-08	-8.238647e-06	-4.226602e-09	-5.750756e+01	-2.821752e+02
4.000000e-08	-8.228522e-06	-4.227424e-09	-5.743689e+01	-2.824488e+02
5.000000e-08	-8.215465e-06	-4.225568e-09	-5.734575e+01	-2.824853e+02
6.000000e-08	-8.199449e-06	-4.212405e-09	-5.723396e+01	-2.819960e+02
7.000000e-08	-8.180638e-06	-4.163442e-09	-5.710265e+01	-2.809851e+02
8.000000e-08	-8.159357e-06	-4.110213e-09	-5.695410e+01	-2.798067e+02
9.000000e-08	-8.135177e-06	-4.225173e-09	-5.678532e+01	-2.789763e+02
1.000000e-07	-8.107665e-06	-4.314516e-09	-5.659328e+01	-2.788390e+02
1.100000e-07	-8.077022e-06	-4.270755e-09	-5.637939e+01	-2.793152e+02
1.200000e-07	-8.043447e-06	-4.261614e-09	-5.614503e+01	-2.799088e+02
1.300000e-07	-8.007051e-06	-4.310641e-09	-5.589097e+01	-2.799981e+02
1.400000e-07	-7.968325e-06	-4.213187e-09	-5.562066e+01	-2.792301e+02
1.500000e-07	-7.927391e-06	-4.008618e-09	-5.533493e+01	-2.777584e+02
1.600000e-07	-7.883623e-06	-4.193629e-09	-5.502942e+01	-2.761587e+02
1.700000e-07	-7.836953e-06	-4.107267e-09	-5.470365e+01	-2.750685e+02
1.800000e-07	-7.787475e-06	-4.076531e-09	-5.435828e+01	-2.747871e+02
1.900000e-07	-7.734849e-06	-4.266584e-09	-5.399094e+01	-2.750961e+02
2.000000e-07	-7.679354e-06	-4.126551e-09	-5.360358e+01	-2.754168e+02
2.100000e-07	-7.621068e-06	-4.168587e-09	-5.319673e+01	-2.751914e+02
2.200000e-07	-7.560018e-06	-4.104028e-09	-5.277058e+01	-2.742283e+02
2.300000e-07	-7.496350e-06	-4.098982e-09	-5.232617e+01	-2.727877e+02
2.400000e-07	-7.429765e-06	-4.107448e-09	-5.186139e+01	-2.713671e+02
2.500000e-07	-7.360411e-06	-4.046778e-09	-5.137728e+01	-2.703497e+02
2.600000e-07	-7.288421e-06	-4.088398e-09	-5.087478e+01	-2.697631e+02
2.700000e-07	-7.213591e-06	-4.068694e-09	-5.035245e+01	-2.693013e+02
2.800000e-07	-7.135937e-06	-4.105310e-09	-4.981041e+01	-2.685723e+02
2.900000e-07	-7.055487e-06	-4.009498e-09	-4.924885e+01	-2.673811e+02
3.000000e-07	-6.972468e-06	-3.984586e-09	-4.866936e+01	-2.658468e+02
3.100000e-07	-6.887151e-06	-4.012607e-09	-4.807382e+01	-2.642878e+02
3.200000e-07	-6.799510e-06	-3.970315e-09	-4.746207e+01	-2.629757e+02
3.300000e-07	-6.709437e-06	-3.995288e-09	-4.683334e+01	-2.619454e+02
3.400000e-07	-6.616951e-06	-3.942781e-09	-4.618777e+01	-2.609911e+02
3.500000e-07	-6.522120e-06	-3.921593e-09	-4.552583e+01	-2.598354e+02
3.600000e-07	-6.424902e-06	-3.910874e-09	-4.484723e+01	-2.583351e+02
3.700000e-07	-6.325307e-06	-3.899045e-09	-4.415203e+01	-2.565720e+02
3.800000e-07	-6.223433e-06	-3.857179e-09	-4.344093e+01	-2.547734e+02
3.900000e-07	-6.119276e-06	-3.820057e-09	-4.271389e+01	-2.531367e+02
4.000000e-07	-6.012829e-06	-3.835107e-09	-4.197087e+01	-2.516927e+02
4.100000e-07	-5.904302e-06	-3.812385e-09	-4.121333e+01	-2.503022e+02
4.200000e-07	-5.793759e-06	-3.786472e-09	-4.044171e+01	-2.487738e+02
4.300000e-07	-5.681048e-06	-3.732119e-09	-3.965496e+01	-2.470043e+02
4.400000e-07	-5.566102e-06	-3.718584e-09	-3.885261e+01	-2.450355e+02
4.500000e-07	-5.448990e-06	-3.712290e-09	-3.803515e+01	-2.429981e+02
4.600000e-07	-5.329774e-06	-3.687920e-09	-3.720299e+01	-2.409974e+02
4.700000e-07	-5.208589e-06	-3.639955e-09	-3.635709e+01	-2.390361e+02
4.800000e-07	-5.085548e-06	-3.598178e-09	-3.549824e+01	-2.370255e+02
4.900000e-07	-4.960697e-06	-3.583892e-09	-3.462675e+01	-2.348668e+02
5.000000e-07	-4.834056e-06	-3.556846e-09	-3.374277e+01	-2.325280e+02
5.100000e-07	-4.705670e-06	-3.516280e-09	-3.284661e+01	-2.300577e+02
5.200000e-07	-4.575610e-06	-3.462658e-09	-3.193876e+01	-2.275330e+02
5.300000e-07	-4.443863e-06	-3.436931e-09	-3.101914e+01	-2.249914e+02
5.400000e-07	-4.310541e-06	-3.413707e-09	-3.008852e+01	-2.224052e+02
5.500000e-07	-4.175695e-06	-3.370767e-09	-2.914727e+01	-2.197138e+02
5.600000e-07	-4.039222e-06	-3.311469e-09	-2.819466e+01	-2.168797e+02
5.700000e-07	-3.901194e-06	-3.266618e-09	-2.723119e+01	-2.139155e+02
5.800000e-07	-3.761692e-06	-3.238356e-09	-2.625744e+01	-2.108591e+02
5.900000e-07	-3.620665e-06	-3.198992e-09	-2.527304e+01	-2.077244e+02
6.000000e-07	-3.478167e-06	-3.138084e-09	-2.427837e+01	-2.044743e+02
6.100000e-07	-3.334336e-06	-3.074584e-09	-2.327439e+01	-2.010462e+02
6.200000e-07	-3.189279e-06	-3.030439e-09	-2.226187e+01	-1.974090e+02
6.300000e-07	-3.043035e-06	-2.988460e-09	-2.124105e+01	-1.936005e+02
6.400000e-07	-2.895726e-06	-2.928232e-09	-2.021280e+01	-1.897071e+02
6.500000e-07	-2.747521e-06	-2.857066e-09	-1.917830e+01	-1.857953e+02
6.600000e-07	-2.598398e-06	-2.797774e-09	-1.813739e+01	-1.818476e+02
6.700000e-07	-2.448352e-06	-2.746648e-09	-1.709004e+01	-1.777589e+02
6.800000e-07	-2.297452e-06	-2.684407e-09	-1.603672e+01	-1.734017e+02
6.900000e-07	-2.145762e-06	-2.605652e-09	-1.497789e+01	-1.687132e+02
7.000000e-07	-1.993374e-06	-2.527724e-09	-1.391419e+01	-1.637382e+02
7.100000e-07	-1.840314e-06	-2.463437e-09	-1.284580e+01	-1.585904e+02
7.200000e-07	-1.686511e-06	-2.395319e-09	-1.177222e+01	-1.533613e+02
7.300000e-07	-1.532001e-06	-2.310943e-09	-1.069370e+01	-1.480452e+02
7.400000e-07	-1.376960e-06	-2.216425e-09	-9.611484e+00	-1.425383e+02
7.500000e-07	-1.221481e-06	-2.122347e-09	-8.526203e+00	-1.367128e+02
7.600000e-07	-1.065538e-06	-2.036296e-09	-7.437688e+00	-1.305077e+02
7.700000e-07	-9.091833e-07	-1.939556e-09	-6.346299e+00	-1.239651e+02
7.800000e-07	-7.525003e-07	-1.829704e-09	-5.252617e+00	-1.171842e+02
7.900000e-07	-5.955254e-07	-1.724139e-09	-4.156898e+00	-1.102300e+02
8.000000e-07	-4.383272e-07	-1.626972e-09	-3.059620e+00	-1.030689e+02
8.100000e-07	-2.809821e-07	-1.519256e-09	-1.961316e+00	-9.558218e+01
8.200000e-07	-1.235211e-07	-1.389816e-09	-8.622046e-01	-8.764484e+01
8.300000e-07	3.400435e-08	-1.252360e-09	2.373578e-01	-7.920378e+01
8.400000e-07	1.915053e-07	-1.117693e-09	1.336749e+00	-7.029116e+01
8.500000e-07	3.489001e-07	-9.836710e-10	2.435399e+00	-6.095941e+01
8.600000e-07	5.061148e-07	-8.360866e-10	3.532793e+00	-5.119053e+01
8.700000e-07	6.631602e-07	-6.708273e-10	4.629003e+00	-4.085638e+01
8.800000e-07	8.199781e-07	-4.988213e-10	5.723627e+00	-2.977160e+01
8.900000e-07	9.764758e-07	-3.224208e-10	6.816015e+00	-1.781045e+01
9.000000e-07	1.132589e-06	-1.305229e-10	7.905717e+00	-5.008918e+00
9.100000e-07	1.288275e-06	7.661664e-11	8.992443e+00	8.419206e+00
9.200000e-07	1.443558e-06	2.878286e-10	1.007635e+01	2.216302e+01
9.300000e-07	1.598331e-06	4.935309e-10	1.115670e+01	3.593581e+01
9.400000e-07	1.752482e-06	6.949420e-10	1.223271e+01	4.955645e+01
9.500000e-07	1.905939e-06	9.022501e-10	1.330387e+01	6.294536e+01
9.600000e-07	2.058651e-06	1.109180e-09	1.436984e+01	7.605431e+01
9.700000e-07	2.210687e-06	1.301834e-09	1.543108e+01	8.879473e+01
9.800000e-07	2.362009e-06	1.478249e-09	1.648734e+01	1.010217e+02
9.900000e-07	2.512478e-06	1.649812e-09	1.753765e+01	1.125817e+02
1.000000e-06	2.661976e-06	1.819099e-09	1.858118e+01	1.233793e+02
1.010000e-06	2.810462e-06	1.977712e-09	1.961764e+01	1.334094e+02
1.020000e-06	2.958010e-06	2.119582e-09	2.064756e+01	1.427291e+02
1.030000e-06	3.104476e-06	2.250286e-09	2.166992e+01	1.513990e+02
1.040000e-06	3.249823e-06	2.375446e-09	2.268447e+01	1.594424e+02
1.050000e-06	3.394040e-06	2.491031e-09	2.369115e+01	1.668567e+02
1.060000e-06	3.536971e-06	2.592452e-09	2.468883e+01	1.736608e+02
1.070000e-06	3.678585e-06	2.684328e-09	2.567733e+01	1.799354e+02
1.080000e-06	3.818807e-06	2.774681e-09	2.665611e+01	1.858121e+02
1.090000e-06	3.957562e-06	2.865844e-09	2.762465e+01	1.914163e+02
1.100000e-06	4.094810e-06	2.953217e-09	2.858267e+01	1.968034e+02
1.110000e-06	4.230568e-06	3.030083e-09	2.953029e+01	2.019400e+02
1.120000e-06	4.364840e-06	3.100821e-09	3.046754e+01	2.067455e+02
1.130000e-06	4.497504e-06	3.170844e-09	3.139357e+01	2.111667e+02
1.140000e-06	4.628494e-06	3.235499e-09	3.230790e+01	2.152290e+02
1.150000e-06	4.757828e-06	3.290207e-09	3.321068e+01	2.190295e+02
1.160000e-06	4.885521e-06	3.340055e-09	3.410201e+01	2.226776e+02
1.170000e-06	5.011531e-06	3.395224e-09	3.498159e+01	2.262316e+02
1.180000e-06	5.135763e-06	3.454731e-09	3.584875e+01	2.296752e+02
1.190000e-06	5.258174e-06	3.507035e-09	3.670321e+01	2.329486e+02
1.200000e-06	5.378682e-06	3.551328e-09	3.754438e+01	2.360044e+02
1.210000e-06	5.497188e-06	3.594871e-09	3.837158e+01	2.388455e+02
1.220000e-06	5.613615e-06	3.641688e-09	3.918426e+01	2.415175e+02
1.230000e-06	5.727873e-06	3.684477e-09	3.998181e+01	2.440702e+02
1.240000e-06	5.839993e-06	3.721561e-09	4.076443e+01	2.465213e+02
1.250000e-06	5.950052e-06	3.755288e-09	4.153267e+01	2.488536e+02
1.260000e-06	6.058035e-06	3.792365e-09	4.228642e+01	2.510432e+02
1.270000e-06	6.163871e-06	3.832048e-09	4.302517e+01	2.530911e+02
1.280000e-06	6.267502e-06	3.866025e-09	4.374854e+01	2.550300e+02
1.290000e-06	6.368875e-06	3.893920e-09	4.445614e+01	2.568992e+02
1.300000e-06	6.467874e-06	3.921136e-09	4.514718e+01	2.587123e+02
1.310000e-06	6.564450e-06	3.951468e-09	4.582130e+01	2.604458e+02
1.320000e-06	6.658693e-06	3.982243e-09	4.647914e+01	2.620613e+02
1.330000e-06	6.750690e-06	4.009933e-09	4.712130e+01	2.635424e+02
1.340000e-06	6.840363e-06	4.033282e-09	4.774723e+01	2.649166e+02
1.350000e-06	6.927623e-06	4.057599e-09	4.835633e+01	2.662417e+02
1.360000e-06	7.012461e-06	4.083655e-09	4.894852e+01	2.675668e+02
1.370000e-06	7.094807e-06	4.106389e-09	4.952331e+01	2.688983e+02
1.380000e-06	7.174578e-06	4.125962e-09	5.008013e+01	2.701966e+02
1.390000e-06	7.251741e-06	4.146974e-09	5.061875e+01	2.714053e+02
1.400000e-06	7.326190e-06	4.169913e-09	5.113842e+01	2.724899e+02
1.410000e-06	7.397919e-06	4.189999e-09	5.163910e+01	2.734565e+02
1.420000e-06	7.467046e-06	4.205517e-09	5.212162e+01	2.743408e+02
1.430000e-06	7.533530e-06	4.220242e-09	5.258569e+01	2.751805e+02
1.440000e-06	7.597385e-06	4.235624e-09	5.303141e+01	2.759955e+02
1.450000e-06	7.658644e-06	4.251567e-09	5.345902e+01	2.767876e+02
1.460000e-06	7.717159e-06	4.267794e-09	5.386746e+01	2.775526e+02
1.470000e-06	7.772870e-06	4.280516e-09	5.425634e+01	2.782880e+02
1.480000e-06	7.825607e-06	4.291045e-09	5.462445e+01	2.789868e+02
1.490000e-06	7.875168e-06	4.303013e-09	5.497040e+01	2.796281e+02
1.500000e-06	7.921796e-06	4.314263e-09	5.529587e+01	2.801810e+02
1.510000e-06	7.965705e-06	4.323871e-09	5.560237e+01	2.806284e+02
1.520000e-06	8.006750e-06	4.332725e-09	5.588887e+01	2.809930e+02
1.530000e-06	8.044939e-06	4.341633e-09	5.615544e+01	2.813371e+02
1.540000e-06	8.080337e-06	4.351107e-09	5.640252e+01	2.817262e+02
1.550000e-06	8.112887e-06	4.360284e-09	5.662973e+01	2.821762e+02
1.560000e-06	8.142658e-06	4.368141e-09	5.683754e+01	2.826274e+02
1.570000e-06	8.169608e-06	4.373929e-09	5.702566e+01	2.829763e+02
1.580000e-06	8.193548e-06	4.379947e-09	5.719276e+01	2.831505e+02
1.590000e-06	8.214608e-06	4.386284e-09	5.733977e+01	2.831722e+02
1.600000e-06	8.232862e-06	4.390676e-09	5.746718e+01	2.831554e+02
1.610000e-06	8.248092e-06	4.394091e-09	5.757349e+01	2.832259e+02
1.620000e-06	8.260157e-06	4.398025e-09	5.765771e+01	2.834188e+02
1.630000e-06	8.269050e-06	4.402995e-09	5.771978e+01	2.836369e+02
1.640000e-06	8.275040e-06	4.405998e-09	5.776159e+01	2.837138e+02
1.650000e-06	8.278170e-06	4.408003e-09	5.778344e+01	2.835479e+02
1.660000e-06	8.278359e-06	4.410243e-09	5.778476e+01	2.832051e+02
1.670000e-06	8.275835e-06	4.401656e-09	5.776715e+01	2.828979e+02
1.680000e-06	8.270574e-06	4.398491e-09	5.773042e+01	2.828355e+02
1.690000e-06	8.262531e-06	4.398363e-09	5.767428e+01	2.830439e+02
1.700000e-06	8.251706e-06	4.394036e-09	5.759872e+01	2.832971e+02
1.710000e-06	8.237869e-06	4.394241e-09	5.750213e+01	2.832371e+02
1.720000e-06	8.221316e-06	4.417051e-09	5.738659e+01	2.826220e+02
1.730000e-06	8.202446e-06	4.480721e-09	5.725488e+01	2.815345e+02
1.740000e-06	8.180876e-06	4.382409e-09	5.710431e+01	2.803868e+02
1.750000e-06	8.155764e-06	4.257046e-09	5.692902e+01	2.796869e+02
1.760000e-06	8.126642e-06	4.271759e-09	5.672575e+01	2.797033e+02
1.770000e-06	8.094136e-06	4.251464e-09	5.649885e+01	2.802555e+02
1.780000e-06	8.059229e-06	4.193226e-09	5.625518e+01	2.807890e+02
1.790000e-06	8.022119e-06	4.376299e-09	5.599615e+01	2.807077e+02
1.800000e-06	7.982910e-06	4.439621e-09	5.572246e+01	2.797571e+02
1.810000e-06	7.941485e-06	4.225949e-09	5.543331e+01	2.781997e+02
1.820000e-06	7.897203e-06	4.398236e-09	5.512421e+01	2.766607e+02
1.830000e-06	7.850106e-06	4.268813e-09	5.479546e+01	2.757349e+02
1.840000e-06	7.800014e-06	4.231256e-09	5.444581e+01	2.756142e+02
1.850000e-06	7.746582e-06	4.301950e-09	5.407284e+01	2.759792e+02
1.860000e-06	7.690302e-06	4.133170e-09	5.368000e+01	2.762204e+02
1.870000e-06	7.631358e-06	4.329102e-09	5.326855e+01	2.758357e+02
1.880000e-06	7.569767e-06	4.205545e-09	5.283864e+01	2.747344e+02
1.890000e-06	7.505413e-06	4.249256e-09	5.238943e+01	2.732538e+02
1.900000e-06	7.438173e-06	4.221172e-09	5.192008e+01	2.718963e+02
1.910000e-06	7.368132e-06	4.112533e-09	5.143118e+01	2.709815e+02
1.920000e-06	7.295219e-06	4.205249e-09	5.092223e+01	2.704541e+02
1.930000e-06	7.219551e-06	4.085587e-09	5.039405e+01	2.699640e+02
1.940000e-06	7.141082e-06	4.201268e-09	4.984632e+01	2.691409e+02
1.950000e-06	7.060021e-06	4.097173e-09	4.928050e+01	2.678552e+02
1.960000e-06	6.976542e-06	4.101029e-09	4.869779e+01	2.662854e+02
1.970000e-06	6.890442e-06	4.106385e-09	4.809679e+01	2.647617e+02
1.980000e-06	6.801838e-06	3.996751e-09	4.747832e+01	2.635157e+02
1.990000e-06	6.710946e-06	4.046363e-09	4.684387e+01	2.625238e+02
2.000000e-06	6.617801e-06	3.980027e-09	4.619370e+01	2.615468e+02
2.010000e-06	6.522234e-06	4.037534e-09	4.552663e+01	2.603209e+02
2.020000e-06	6.424388e-06	3.960287e-09	4.484364e+01	2.587493e+02
2.030000e-06	6.324246e-06	3.950464e-09	4.414463e+01	2.569566e+02
2.040000e-06	6.221658e-06	3.901328e-09	4.342854e+01	2.551794e+02
2.050000e-06	6.116812e-06	3.877837e-09	4.269669e+01	2.535872e+02
2.060000e-06	6.009845e-06	3.876873e-09	4.195003e+01	2.521695e+02
2.070000e-06	5.900818e-06	3.820761e-09	4.118900e+01	2.507634e+02
2.080000e-06	5.789635e-06	3.822691e-09	4.041292e+01	2.491862e+02
2.090000e-06	5.676241e-06	3.765353e-09	3.962141e+01	2.473649e+02
2.100000e-06	5.560607e-06	3.765754e-09	3.881426e+01	2.453685e+02
2.110000e-06	5.442771e-06	3.702655e-09	3.799173e+01	2.433319e+02
2.120000e-06	5.322862e-06	3.683694e-09	3.715474e+01	2.413424e+02
2.130000e-06	5.201100e-06	3.640492e-09	3.630482e+01	2.393788e+02
2.140000e-06	5.077526e-06	3.628534e-09	3.544225e+01	2.373425e+02
2.150000e-06	4.952099e-06	3.587985e-09	3.456674e+01	2.351438e+02
2.160000e-06	4.824863e-06	3.539845e-09	3.367860e+01	2.327696e+02
2.170000e-06	4.695877e-06	3.502258e-09	3.277825e+01	2.302807e+02
2.180000e-06	4.565253e-06	3.463740e-09	3.186647e+01	2.277505e+02
2.190000e-06	4.433068e-06	3.435101e-09	3.094379e+01	2.252026e+02
2.200000e-06	4.299341e-06	3.380678e-09	3.001035e+01	2.225979e+02
2.210000e-06	4.163997e-06	3.339631e-09	2.906561e+01	2.198765e+02
2.220000e-06	4.027055e-06	3.286348e-09	2.810973e+01	2.170110e+02
2.230000e-06	3.888556e-06	3.256449e-09	2.714297e+01	2.140229e+02
2.240000e-06	3.748629e-06	3.201186e-09	2.616626e+01	2.109492e+02
2.250000e-06	3.607355e-06	3.148454e-09	2.518013e+01	2.077935e+02
2.260000e-06	3.464693e-06	3.090005e-09	2.418432e+01	2.045094e+02
2.270000e-06	3.320688e-06	3.047608e-09	2.317913e+01	2.010360e+02
2.280000e-06	3.175517e-06	2.993930e-09	2.216581e+01	1.973555e+02
2.290000e-06	3.029217e-06	2.930160e-09	2.114460e+01	1.935200e+02
2.300000e-06	2.881875e-06	2.860424e-09	2.011612e+01	1.896183e+02
2.310000e-06	2.733600e-06	2.799506e-09	1.908113e+01	1.857027e+02
2.320000e-06	2.584329e-06	2.744723e-09	1.803919e+01	1.817348e+02
2.330000e-06	2.434160e-06	2.678912e-09	1.699097e+01	1.775974e+02
2.340000e-06	2.283149e-06	2.607297e-09	1.593688e+01	1.731699e+02
2.350000e-06	2.131305e-06	2.530945e-09	1.487698e+01	1.684118e+02
2.360000e-06	1.978653e-06	2.459078e-09	1.381143e+01	1.633884e+02
2.370000e-06	1.825293e-06	2.376812e-09	1.274095e+01	1.582170e+02
2.380000e-06	1.671268e-06	2.291188e-09	1.166582e+01	1.529728e+02
2.390000e-06	1.516587e-06	2.204146e-09	1.058611e+01	1.476258e+02
2.400000e-06	1.361362e-06	2.127507e-09	9.502604e+00	1.420594e+02
2.410000e-06	1.205743e-06	2.041193e-09	8.416348e+00	1.361531e+02
2.420000e-06	1.049788e-06	1.942174e-09	7.327750e+00	1.298680e+02
2.430000e-06	8.934922e-07	1.834189e-09	6.236771e+00	1.232648e+02
2.440000e-06	7.367959e-07	1.731343e-09	5.142997e+00	1.164431e+02
2.450000e-06	5.798226e-07	1.631079e-09	4.047289e+00	1.094501e+02
2.460000e-06	4.226609e-07	1.521318e-09	2.950266e+00	1.022299e+02
2.470000e-06	2.653048e-07	1.398473e-09	1.851886e+00	9.465460e+01
2.480000e-06	1.078771e-07	1.271185e-09	7.530058e-01	8.660951e+01
2.490000e-06	-4.956421e-08	1.147088e-09	-3.459690e-01	7.806162e+01
2.500000e-06	-2.069698e-07	1.012973e-09	-1.444695e+00	6.905491e+01
2.510000e-06	-3.642782e-07	8.645064e-10	-2.542742e+00	5.963377e+01
2.520000e-06	-5.213717e-07	7.092677e-10	-3.639289e+00	4.975693e+01
2.530000e-06	-6.782275e-07	5.548810e-10	-4.734177e+00	3.927648e+01
2.540000e-06	-8.348390e-07	3.888778e-10	-5.827360e+00	2.800912e+01
2.550000e-06	-9.911070e-07	2.016999e-10	-6.918144e+00	1.585734e+01
2.560000e-06	-1.147012e-06	-2.004154e-12	-8.006396e+00	2.897493e+00
2.570000e-06	-1.302579e-06	-2.099296e-10	-9.092287e+00	-1.062643e+01
2.580000e-06	-1.457703e-06	-4.182907e-10	-1.017509e+01	-2.439869e+01
2.590000e-06	-1.612288e-06	-6.287818e-10	-1.125413e+01	-3.815099e+01
2.600000e-06	-1.766276e-06	-8.418528e-10	-1.232900e+01	-5.172728e+01
2.610000e-06	-1.919564e-06	-1.049301e-09	-1.339897e+01	-6.506178e+01
2.620000e-06	-2.072088e-06	-1.245282e-09	-1.446363e+01	-7.810237e+01
2.630000e-06	-2.223828e-06	-1.435024e-09	-1.552280e+01	-9.074730e+01
2.640000e-06	-2.374786e-06	-1.621970e-09	-1.657652e+01	-1.028442e+02
2.650000e-06	-2.524928e-06	-1.801555e-09	-1.762455e+01	-1.142468e+02
2.660000e-06	-2.674130e-06	-1.964303e-09	-1.866601e+01	-1.248785e+02
2.670000e-06	-2.822371e-06	-2.108690e-09	-1.970077e+01	-1.347515e+02
2.680000e-06	-2.969666e-06	-2.244219e-09	-2.072892e+01	-1.439288e+02
2.690000e-06	-3.115878e-06	-2.376400e-09	-2.174951e+01	-1.524649e+02
2.700000e-06	-3.260873e-06	-2.499952e-09	-2.276161e+01	-1.603748e+02
2.710000e-06	-3.404622e-06	-2.610075e-09	-2.376501e+01	-1.676559e+02
2.720000e-06	-3.547157e-06	-2.711353e-09	-2.475993e+01	-1.743385e+02
2.730000e-06	-3.688334e-06	-2.807823e-09	-2.574538e+01	-1.805169e+02
2.740000e-06	-3.828075e-06	-2.898928e-09	-2.672080e+01	-1.863272e+02
2.750000e-06	-3.966426e-06	-2.981396e-09	-2.768652e+01	-1.918843e+02
2.760000e-06	-4.103276e-06	-3.055582e-09	-2.864177e+01	-1.972242e+02
2.770000e-06	-4.238576e-06	-3.128856e-09	-2.958619e+01	-2.022978e+02
2.780000e-06	-4.372370e-06	-3.202952e-09	-3.052010e+01	-2.070242e+02
2.790000e-06	-4.504665e-06	-3.272937e-09	-3.144355e+01	-2.113643e+02
2.800000e-06	-4.635402e-06	-3.335835e-09	-3.235613e+01	-2.153619e+02
2.810000e-06	-4.764488e-06	-3.395325e-09	-3.325717e+01	-2.191224e+02
2.820000e-06	-4.891865e-06	-3.452768e-09	-3.414629e+01	-2.227490e+02
2.830000e-06	-5.017513e-06	-3.504465e-09	-3.502334e+01	-2.262839e+02
2.840000e-06	-5.141401e-06	-3.548859e-09	-3.588811e+01	-2.296975e+02
2.850000e-06	-5.263511e-06	-3.590859e-09	-3.674046e+01	-2.329279e+02
2.860000e-06	-5.383707e-06	-3.637587e-09	-3.757946e+01	-2.359365e+02
2.870000e-06	-5.501769e-06	-3.685388e-09	-3.840356e+01	-2.387377e+02
2.880000e-06	-5.617641e-06	-3.726521e-09	-3.921237e+01	-2.413817e+02
2.890000e-06	-5.731309e-06	-3.761416e-09	-4.000580e+01	-2.439135e+02
2.900000e-06	-5.842747e-06	-3.795704e-09	-4.078366e+01	-2.463423e+02
2.910000e-06	-5.951990e-06	-3.829422e-09	-4.154620e+01	-2.486466e+02
2.920000e-06	-6.059122e-06	-3.858726e-09	-4.229400e+01	-2.508055e+02
2.930000e-06	-6.164248e-06	-3.886199e-09	-4.302780e+01	-2.528276e+02
2.940000e-06	-6.267207e-06	-3.912805e-09	-4.374648e+01	-2.547496e+02
