# Temperatura_=_30.8
# Concentracion g/m^3_=_5700.0
# C_Vs_to_Am_M_A/Vsm_=_65563218390.804596
# pendiente_HvsI_1/m_=_3716.3
# ordenada_HvsI_A/m_=_1297.0
# frecuencia_Hz_=_301586.36483944696

Tiempo_(s)	Campo_(V.s)	Magnetizacion_(V.s)	Campo_(kA/m)	Magnetizacion_(A/m)
0.000000e+00	-8.282249e-06	-4.147314e-09	-5.761051e+01	-2.786923e+02
1.000000e-08	-8.279563e-06	-4.152311e-09	-5.759183e+01	-2.784185e+02
2.000000e-08	-8.274088e-06	-4.149181e-09	-5.755374e+01	-2.782987e+02
3.000000e-08	-8.265998e-06	-4.145869e-09	-5.749747e+01	-2.783360e+02
4.000000e-08	-8.255063e-06	-4.146902e-09	-5.742141e+01	-2.783630e+02
5.000000e-08	-8.241162e-06	-4.143476e-09	-5.732472e+01	-2.781419e+02
6.000000e-08	-8.224363e-06	-4.127405e-09	-5.720786e+01	-2.775464e+02
7.000000e-08	-8.204886e-06	-4.076848e-09	-5.707238e+01	-2.766954e+02
8.000000e-08	-8.182842e-06	-4.082935e-09	-5.691905e+01	-2.759204e+02
9.000000e-08	-8.157633e-06	-4.218048e-09	-5.674370e+01	-2.755624e+02
1.000000e-07	-8.129011e-06	-4.243040e-09	-5.654460e+01	-2.757231e+02
1.100000e-07	-8.097414e-06	-4.183338e-09	-5.632482e+01	-2.761493e+02
1.200000e-07	-8.062924e-06	-4.196741e-09	-5.608491e+01	-2.763549e+02
1.300000e-07	-8.025662e-06	-4.222367e-09	-5.582572e+01	-2.759206e+02
1.400000e-07	-7.986176e-06	-4.046893e-09	-5.555106e+01	-2.747780e+02
1.500000e-07	-7.944311e-06	-3.973869e-09	-5.525985e+01	-2.732751e+02
1.600000e-07	-7.899509e-06	-4.167208e-09	-5.494821e+01	-2.719661e+02
1.700000e-07	-7.851995e-06	-4.011102e-09	-5.461771e+01	-2.712548e+02
1.800000e-07	-7.801554e-06	-4.115841e-09	-5.426684e+01	-2.711338e+02
1.900000e-07	-7.747860e-06	-4.186454e-09	-5.389336e+01	-2.712014e+02
2.000000e-07	-7.691374e-06	-4.036817e-09	-5.350045e+01	-2.709466e+02
2.100000e-07	-7.632091e-06	-4.088676e-09	-5.308808e+01	-2.701046e+02
2.200000e-07	-7.570099e-06	-3.999626e-09	-5.265687e+01	-2.688330e+02
2.300000e-07	-7.505356e-06	-4.059240e-09	-5.220652e+01	-2.675850e+02
2.400000e-07	-7.437715e-06	-4.028667e-09	-5.173602e+01	-2.667714e+02
2.500000e-07	-7.367435e-06	-4.031628e-09	-5.124715e+01	-2.664553e+02
2.600000e-07	-7.294385e-06	-4.048729e-09	-5.073903e+01	-2.662976e+02
2.700000e-07	-7.218512e-06	-4.024103e-09	-5.021126e+01	-2.657928e+02
2.800000e-07	-7.139797e-06	-4.024628e-09	-4.966373e+01	-2.646260e+02
2.900000e-07	-7.058252e-06	-3.906503e-09	-4.909651e+01	-2.628954e+02
3.000000e-07	-6.974278e-06	-3.942292e-09	-4.851240e+01	-2.610438e+02
3.100000e-07	-6.888065e-06	-3.941439e-09	-4.791270e+01	-2.595527e+02
3.200000e-07	-6.799435e-06	-3.936941e-09	-4.729620e+01	-2.586158e+02
3.300000e-07	-6.708346e-06	-3.943244e-09	-4.666260e+01	-2.580210e+02
3.400000e-07	-6.614914e-06	-3.887349e-09	-4.601269e+01	-2.573152e+02
3.500000e-07	-6.519079e-06	-3.866763e-09	-4.534608e+01	-2.561229e+02
3.600000e-07	-6.420777e-06	-3.845962e-09	-4.466229e+01	-2.543921e+02
3.700000e-07	-6.320130e-06	-3.837636e-09	-4.396221e+01	-2.524013e+02
3.800000e-07	-6.217294e-06	-3.791926e-09	-4.324689e+01	-2.505410e+02
3.900000e-07	-6.112193e-06	-3.792187e-09	-4.251581e+01	-2.490383e+02
4.000000e-07	-6.004884e-06	-3.797090e-09	-4.176938e+01	-2.478220e+02
4.100000e-07	-5.895503e-06	-3.767826e-09	-4.100854e+01	-2.466084e+02
4.200000e-07	-5.783979e-06	-3.723322e-09	-4.023279e+01	-2.451248e+02
4.300000e-07	-5.670150e-06	-3.677774e-09	-3.944100e+01	-2.432968e+02
4.400000e-07	-5.554112e-06	-3.675293e-09	-3.863386e+01	-2.412686e+02
4.500000e-07	-5.436056e-06	-3.672733e-09	-3.781267e+01	-2.392609e+02
4.600000e-07	-5.315908e-06	-3.646026e-09	-3.697694e+01	-2.373888e+02
4.700000e-07	-5.193753e-06	-3.593661e-09	-3.612724e+01	-2.355818e+02
4.800000e-07	-5.069739e-06	-3.562964e-09	-3.526461e+01	-2.336564e+02
4.900000e-07	-4.943928e-06	-3.544246e-09	-3.438948e+01	-2.314708e+02
5.000000e-07	-4.816375e-06	-3.513517e-09	-3.350223e+01	-2.290345e+02
5.100000e-07	-4.687067e-06	-3.468742e-09	-3.260278e+01	-2.264898e+02
5.200000e-07	-4.556067e-06	-3.431568e-09	-3.169156e+01	-2.239899e+02
5.300000e-07	-4.423418e-06	-3.411172e-09	-3.076886e+01	-2.215751e+02
5.400000e-07	-4.289185e-06	-3.381571e-09	-2.983515e+01	-2.191464e+02
5.500000e-07	-4.153439e-06	-3.324427e-09	-2.889092e+01	-2.165500e+02
5.600000e-07	-4.016039e-06	-3.266265e-09	-2.793517e+01	-2.136991e+02
5.700000e-07	-3.877010e-06	-3.234551e-09	-2.696810e+01	-2.106346e+02
5.800000e-07	-3.736476e-06	-3.211295e-09	-2.599056e+01	-2.074789e+02
5.900000e-07	-3.594493e-06	-3.166725e-09	-2.500294e+01	-2.043264e+02
6.000000e-07	-3.451156e-06	-3.101521e-09	-2.400590e+01	-2.011637e+02
6.100000e-07	-3.306500e-06	-3.044947e-09	-2.299969e+01	-1.978821e+02
6.200000e-07	-3.160659e-06	-3.000573e-09	-2.198523e+01	-1.943701e+02
6.300000e-07	-3.013726e-06	-2.952653e-09	-2.096319e+01	-1.906057e+02
6.400000e-07	-2.865739e-06	-2.883424e-09	-1.993380e+01	-1.866730e+02
6.500000e-07	-2.716803e-06	-2.816962e-09	-1.889781e+01	-1.826889e+02
6.600000e-07	-2.566966e-06	-2.766550e-09	-1.785557e+01	-1.787002e+02
6.700000e-07	-2.416305e-06	-2.719522e-09	-1.680758e+01	-1.746360e+02
6.800000e-07	-2.264733e-06	-2.651003e-09	-1.575326e+01	-1.703543e+02
6.900000e-07	-2.112246e-06	-2.568332e-09	-1.469258e+01	-1.657459e+02
7.000000e-07	-1.959050e-06	-2.497434e-09	-1.362696e+01	-1.608137e+02
7.100000e-07	-1.805162e-06	-2.435885e-09	-1.255653e+01	-1.556643e+02
7.200000e-07	-1.650527e-06	-2.363469e-09	-1.148091e+01	-1.504196e+02
7.300000e-07	-1.495247e-06	-2.272008e-09	-1.040079e+01	-1.451173e+02
7.400000e-07	-1.339489e-06	-2.179176e-09	-9.317353e+00	-1.396772e+02
7.500000e-07	-1.183253e-06	-2.092076e-09	-8.230595e+00	-1.339561e+02
7.600000e-07	-1.026550e-06	-2.007685e-09	-7.140581e+00	-1.278460e+02
7.700000e-07	-8.694643e-07	-1.907375e-09	-6.047909e+00	-1.213383e+02
7.800000e-07	-7.121200e-07	-1.799940e-09	-4.953437e+00	-1.145094e+02
7.900000e-07	-5.545939e-07	-1.700930e-09	-3.857701e+00	-1.074433e+02
8.000000e-07	-3.969236e-07	-1.601484e-09	-2.760961e+00	-1.001580e+02
8.100000e-07	-2.391465e-07	-1.483070e-09	-1.663479e+00	-9.258918e+01
8.200000e-07	-8.122302e-08	-1.347891e-09	-5.649794e-01	-8.463871e+01
8.300000e-07	7.674481e-08	-1.215614e-09	5.338294e-01	-7.623729e+01
8.400000e-07	2.346629e-07	-1.087618e-09	1.632292e+00	-6.736578e+01
8.500000e-07	3.925074e-07	-9.529749e-10	2.730243e+00	-5.801768e+01
8.600000e-07	5.502244e-07	-7.982659e-10	3.827307e+00	-4.814038e+01
8.700000e-07	7.077842e-07	-6.303848e-10	4.923278e+00	-3.761552e+01
8.800000e-07	8.650942e-07	-4.599134e-10	6.017511e+00	-2.630914e+01
8.900000e-07	1.022065e-06	-2.795275e-10	7.109385e+00	-1.416475e+01
9.000000e-07	1.178685e-06	-8.082609e-11	8.198819e+00	-1.273287e+00
9.100000e-07	1.334890e-06	1.298884e-10	9.285364e+00	1.213395e+01
9.200000e-07	1.490600e-06	3.382414e-10	1.036846e+01	2.576817e+01
9.300000e-07	1.645742e-06	5.392207e-10	1.144762e+01	3.938572e+01
9.400000e-07	1.800246e-06	7.412966e-10	1.252233e+01	5.284241e+01
9.500000e-07	1.954071e-06	9.509771e-10	1.359233e+01	6.607049e+01
9.600000e-07	2.107196e-06	1.154302e-09	1.465745e+01	7.900856e+01
9.700000e-07	2.259650e-06	1.338024e-09	1.571790e+01	9.154671e+01
9.800000e-07	2.411342e-06	1.508121e-09	1.677306e+01	1.035311e+02
9.900000e-07	2.562044e-06	1.677370e-09	1.782132e+01	1.148207e+02
1.000000e-06	2.711704e-06	1.844087e-09	1.886234e+01	1.253467e+02
1.010000e-06	2.860423e-06	1.997366e-09	1.989682e+01	1.351257e+02
1.020000e-06	3.008200e-06	2.135225e-09	2.092475e+01	1.442181e+02
1.030000e-06	3.154876e-06	2.266653e-09	2.194501e+01	1.526708e+02
1.040000e-06	3.300410e-06	2.390129e-09	2.295733e+01	1.604921e+02
1.050000e-06	3.444810e-06	2.498970e-09	2.396176e+01	1.676804e+02
1.060000e-06	3.587956e-06	2.592357e-09	2.495747e+01	1.742765e+02
1.070000e-06	3.729696e-06	2.682320e-09	2.594340e+01	1.803885e+02
1.080000e-06	3.869994e-06	2.776055e-09	2.691930e+01	1.861593e+02
1.090000e-06	4.008858e-06	2.867950e-09	2.788522e+01	1.916950e+02
1.100000e-06	4.146226e-06	2.951616e-09	2.884074e+01	1.970082e+02
1.110000e-06	4.282054e-06	3.024419e-09	2.978555e+01	2.020252e+02
1.120000e-06	4.416317e-06	3.092507e-09	3.071947e+01	2.066554e+02
1.130000e-06	4.549028e-06	3.157846e-09	3.164259e+01	2.108746e+02
1.140000e-06	4.680066e-06	3.216971e-09	3.255408e+01	2.147593e+02
1.150000e-06	4.809407e-06	3.269819e-09	3.345376e+01	2.184459e+02
1.160000e-06	4.937082e-06	3.323114e-09	3.434186e+01	2.220454e+02
1.170000e-06	5.063041e-06	3.378876e-09	3.521802e+01	2.255777e+02
1.180000e-06	5.187237e-06	3.435177e-09	3.608191e+01	2.289732e+02
1.190000e-06	5.309601e-06	3.484396e-09	3.693307e+01	2.321377e+02
1.200000e-06	5.430043e-06	3.529083e-09	3.777084e+01	2.350303e+02
1.210000e-06	5.548435e-06	3.574363e-09	3.859437e+01	2.376931e+02
1.220000e-06	5.664708e-06	3.621012e-09	3.940316e+01	2.402170e+02
1.230000e-06	5.778817e-06	3.660515e-09	4.019689e+01	2.426716e+02
1.240000e-06	5.890762e-06	3.693000e-09	4.097556e+01	2.450596e+02
1.250000e-06	6.000611e-06	3.724801e-09	4.173966e+01	2.473274e+02
1.260000e-06	6.108322e-06	3.759178e-09	4.248889e+01	2.494218e+02
1.270000e-06	6.213882e-06	3.795013e-09	4.322315e+01	2.513426e+02
1.280000e-06	6.317204e-06	3.825294e-09	4.394185e+01	2.531492e+02
1.290000e-06	6.418228e-06	3.854121e-09	4.464457e+01	2.549162e+02
1.300000e-06	6.516950e-06	3.884566e-09	4.533127e+01	2.566765e+02
1.310000e-06	6.613216e-06	3.915473e-09	4.600089e+01	2.583993e+02
1.320000e-06	6.707200e-06	3.944503e-09	4.665463e+01	2.600191e+02
1.330000e-06	6.798906e-06	3.968228e-09	4.729253e+01	2.614924e+02
1.340000e-06	6.888166e-06	3.989221e-09	4.791341e+01	2.628347e+02
1.350000e-06	6.975058e-06	4.013843e-09	4.851782e+01	2.641079e+02
1.360000e-06	7.059553e-06	4.039748e-09	4.910556e+01	2.653703e+02
1.370000e-06	7.141526e-06	4.061834e-09	4.967575e+01	2.666298e+02
1.380000e-06	7.220887e-06	4.081217e-09	5.022778e+01	2.678394e+02
1.390000e-06	7.297553e-06	4.101645e-09	5.076107e+01	2.689369e+02
1.400000e-06	7.371482e-06	4.123424e-09	5.127530e+01	2.698962e+02
1.410000e-06	7.442745e-06	4.142043e-09	5.177101e+01	2.707496e+02
1.420000e-06	7.511405e-06	4.154943e-09	5.224860e+01	2.715633e+02
1.430000e-06	7.577405e-06	4.166213e-09	5.270769e+01	2.723877e+02
1.440000e-06	7.640739e-06	4.179264e-09	5.314823e+01	2.732220e+02
1.450000e-06	7.701373e-06	4.194948e-09	5.357000e+01	2.740198e+02
1.460000e-06	7.759260e-06	4.209991e-09	5.397265e+01	2.747267e+02
1.470000e-06	7.814419e-06	4.221621e-09	5.435634e+01	2.753203e+02
1.480000e-06	7.866504e-06	4.232866e-09	5.471863e+01	2.758203e+02
1.490000e-06	7.915361e-06	4.245132e-09	5.505848e+01	2.762680e+02
1.500000e-06	7.961388e-06	4.255093e-09	5.537864e+01	2.766959e+02
1.510000e-06	8.004641e-06	4.263519e-09	5.567950e+01	2.771145e+02
1.520000e-06	8.044961e-06	4.272385e-09	5.595996e+01	2.775207e+02
1.530000e-06	8.082519e-06	4.282755e-09	5.622121e+01	2.779135e+02
1.540000e-06	8.117329e-06	4.292706e-09	5.646335e+01	2.782964e+02
1.550000e-06	8.149268e-06	4.298310e-09	5.668551e+01	2.786632e+02
1.560000e-06	8.178394e-06	4.301904e-09	5.688811e+01	2.789857e+02
1.570000e-06	8.204571e-06	4.308604e-09	5.707019e+01	2.792245e+02
1.580000e-06	8.227763e-06	4.318068e-09	5.723152e+01	2.793616e+02
1.590000e-06	8.248158e-06	4.325301e-09	5.737338e+01	2.794278e+02
1.600000e-06	8.265684e-06	4.328575e-09	5.749529e+01	2.794930e+02
1.610000e-06	8.280138e-06	4.331784e-09	5.759583e+01	2.796162e+02
1.620000e-06	8.291414e-06	4.336506e-09	5.767426e+01	2.797889e+02
1.630000e-06	8.299636e-06	4.340158e-09	5.773146e+01	2.799247e+02
1.640000e-06	8.304954e-06	4.341938e-09	5.776845e+01	2.799150e+02
1.650000e-06	8.307299e-06	4.345997e-09	5.778476e+01	2.797195e+02
1.660000e-06	8.306765e-06	4.349434e-09	5.778104e+01	2.794177e+02
1.670000e-06	8.303578e-06	4.341450e-09	5.775887e+01	2.791675e+02
1.680000e-06	8.297588e-06	4.338430e-09	5.771721e+01	2.790864e+02
1.690000e-06	8.288741e-06	4.334288e-09	5.765567e+01	2.791395e+02
1.700000e-06	8.277026e-06	4.326401e-09	5.757418e+01	2.791316e+02
1.710000e-06	8.262436e-06	4.328725e-09	5.747269e+01	2.788329e+02
1.720000e-06	8.245304e-06	4.361612e-09	5.735353e+01	2.781627e+02
1.730000e-06	8.225767e-06	4.387870e-09	5.721763e+01	2.772949e+02
1.740000e-06	8.203277e-06	4.246416e-09	5.706119e+01	2.765844e+02
1.750000e-06	8.176994e-06	4.184626e-09	5.687837e+01	2.763400e+02
1.760000e-06	8.146760e-06	4.222110e-09	5.666806e+01	2.765895e+02
1.770000e-06	8.113474e-06	4.178995e-09	5.643653e+01	2.770114e+02
1.780000e-06	8.077926e-06	4.166874e-09	5.618926e+01	2.771057e+02
1.790000e-06	8.040132e-06	4.379018e-09	5.592637e+01	2.765094e+02
1.800000e-06	8.000237e-06	4.287454e-09	5.564887e+01	2.752476e+02
1.810000e-06	7.957921e-06	4.157917e-09	5.535452e+01	2.737383e+02
1.820000e-06	7.912657e-06	4.334006e-09	5.503966e+01	2.725341e+02
1.830000e-06	7.864640e-06	4.142182e-09	5.470566e+01	2.719648e+02
1.840000e-06	7.813428e-06	4.228965e-09	5.434944e+01	2.719266e+02
1.850000e-06	7.759042e-06	4.169327e-09	5.397113e+01	2.719638e+02
1.860000e-06	7.701952e-06	4.123499e-09	5.357402e+01	2.715910e+02
1.870000e-06	7.642021e-06	4.274872e-09	5.315715e+01	2.706288e+02
1.880000e-06	7.579428e-06	4.125081e-09	5.272176e+01	2.693189e+02
1.890000e-06	7.514060e-06	4.236243e-09	5.226707e+01	2.681369e+02
1.900000e-06	7.445836e-06	4.094740e-09	5.179251e+01	2.674388e+02
1.910000e-06	7.374776e-06	4.096551e-09	5.129822e+01	2.671952e+02
1.920000e-06	7.300896e-06	4.124775e-09	5.078432e+01	2.670035e+02
1.930000e-06	7.224219e-06	4.069443e-09	5.025096e+01	2.663702e+02
1.940000e-06	7.144761e-06	4.174557e-09	4.969826e+01	2.650586e+02
1.950000e-06	7.062909e-06	4.025638e-09	4.912891e+01	2.632569e+02
1.960000e-06	6.978476e-06	4.091522e-09	4.854160e+01	2.614469e+02
1.970000e-06	6.891348e-06	3.997349e-09	4.793554e+01	2.600714e+02
1.980000e-06	6.801837e-06	3.961202e-09	4.731292e+01	2.592372e+02
1.990000e-06	6.710008e-06	3.974279e-09	4.667416e+01	2.586584e+02
2.000000e-06	6.615824e-06	3.951627e-09	4.601902e+01	2.578705e+02
2.010000e-06	6.519252e-06	4.009570e-09	4.534728e+01	2.565533e+02
2.020000e-06	6.420437e-06	3.918978e-09	4.465993e+01	2.547343e+02
2.030000e-06	6.319236e-06	3.917889e-09	4.395599e+01	2.527396e+02
2.040000e-06	6.215683e-06	3.819602e-09	4.323568e+01	2.509455e+02
2.050000e-06	6.109975e-06	3.831342e-09	4.250039e+01	2.495192e+02
2.060000e-06	6.002105e-06	3.804050e-09	4.175005e+01	2.483299e+02
2.070000e-06	5.892015e-06	3.790821e-09	4.098428e+01	2.470758e+02
2.080000e-06	5.779778e-06	3.773852e-09	4.020357e+01	2.455153e+02
2.090000e-06	5.665373e-06	3.730564e-09	3.940778e+01	2.436259e+02
2.100000e-06	5.548625e-06	3.716609e-09	3.859569e+01	2.415838e+02
2.110000e-06	5.429746e-06	3.650771e-09	3.776878e+01	2.396008e+02
2.120000e-06	5.308958e-06	3.631649e-09	3.692859e+01	2.377535e+02
2.130000e-06	5.186351e-06	3.587197e-09	3.607575e+01	2.359368e+02
2.140000e-06	5.061816e-06	3.590364e-09	3.520950e+01	2.339625e+02
2.150000e-06	4.935376e-06	3.544142e-09	3.432999e+01	2.317158e+02
2.160000e-06	4.807191e-06	3.502041e-09	3.343835e+01	2.292408e+02
2.170000e-06	4.677377e-06	3.443953e-09	3.253538e+01	2.266944e+02
2.180000e-06	4.545959e-06	3.408706e-09	3.162124e+01	2.242136e+02
2.190000e-06	4.412888e-06	3.377070e-09	3.069561e+01	2.218071e+02
2.200000e-06	4.278208e-06	3.343087e-09	2.975880e+01	2.193540e+02
2.210000e-06	4.141983e-06	3.301564e-09	2.881123e+01	2.167053e+02
2.220000e-06	4.004191e-06	3.251993e-09	2.785276e+01	2.138002e+02
2.230000e-06	3.864817e-06	3.209890e-09	2.688329e+01	2.107042e+02
2.240000e-06	3.723982e-06	3.148766e-09	2.590366e+01	2.075433e+02
2.250000e-06	3.581709e-06	3.092710e-09	2.491402e+01	2.043931e+02
2.260000e-06	3.438184e-06	3.038281e-09	2.391567e+01	2.012150e+02
2.270000e-06	3.293552e-06	3.004441e-09	2.290963e+01	1.978906e+02
2.280000e-06	3.147697e-06	2.956397e-09	2.189507e+01	1.943214e+02
2.290000e-06	3.000571e-06	2.898321e-09	2.087168e+01	1.905103e+02
2.300000e-06	2.852404e-06	2.824150e-09	1.984104e+01	1.865569e+02
2.310000e-06	2.703229e-06	2.762328e-09	1.880340e+01	1.825710e+02
2.320000e-06	2.553083e-06	2.700508e-09	1.775899e+01	1.785749e+02
2.330000e-06	2.402104e-06	2.638306e-09	1.670880e+01	1.744758e+02
2.340000e-06	2.250291e-06	2.566097e-09	1.565280e+01	1.701293e+02
2.350000e-06	2.097738e-06	2.493037e-09	1.459166e+01	1.654461e+02
2.360000e-06	1.944479e-06	2.417131e-09	1.352560e+01	1.604553e+02
2.370000e-06	1.790492e-06	2.333163e-09	1.245449e+01	1.552760e+02
2.380000e-06	1.635764e-06	2.248003e-09	1.137822e+01	1.500190e+02
2.390000e-06	1.480372e-06	2.167348e-09	1.029732e+01	1.446966e+02
2.400000e-06	1.324467e-06	2.095502e-09	9.212861e+00	1.392078e+02
2.410000e-06	1.168228e-06	2.009649e-09	8.126081e+00	1.334087e+02
2.420000e-06	1.011671e-06	1.911244e-09	7.037085e+00	1.272096e+02
2.430000e-06	8.547219e-07	1.800336e-09	5.945362e+00	1.206241e+02
2.440000e-06	6.973551e-07	1.693346e-09	4.850734e+00	1.137378e+02
2.450000e-06	5.397746e-07	1.587198e-09	3.754619e+00	1.066255e+02
2.460000e-06	3.820526e-07	1.476376e-09	2.657521e+00	9.928615e+01
2.470000e-06	2.241292e-07	1.356149e-09	1.559021e+00	9.164283e+01
2.480000e-06	6.612911e-08	1.234826e-09	4.599876e-01	8.359889e+01
2.490000e-06	-9.187251e-08	1.111207e-09	-6.390562e-01	7.509616e+01
2.500000e-06	-2.497850e-07	9.736996e-10	-1.737480e+00	6.612298e+01
2.510000e-06	-4.075997e-07	8.225121e-10	-2.835224e+00	5.666745e+01
2.520000e-06	-5.652660e-07	6.663822e-10	-3.931935e+00	4.666225e+01
2.530000e-06	-7.226752e-07	5.105237e-10	-5.026858e+00	3.597919e+01
2.540000e-06	-8.797568e-07	3.407321e-10	-6.119502e+00	2.449277e+01
2.550000e-06	-1.036493e-06	1.499331e-10	-7.209746e+00	1.217428e+01
2.560000e-06	-1.192846e-06	-5.367957e-11	-8.297321e+00	-8.516161e-01
2.570000e-06	-1.348782e-06	-2.586095e-10	-9.381992e+00	-1.433254e+01
2.580000e-06	-1.504340e-06	-4.629225e-10	-1.046404e+01	-2.798147e+01
2.590000e-06	-1.659410e-06	-6.704650e-10	-1.154270e+01	-4.157411e+01
2.600000e-06	-1.813765e-06	-8.801247e-10	-1.261638e+01	-5.498698e+01
2.610000e-06	-1.967321e-06	-1.081621e-09	-1.368449e+01	-6.816008e+01
2.620000e-06	-2.120060e-06	-1.274080e-09	-1.474693e+01	-8.102459e+01
2.630000e-06	-2.272078e-06	-1.466183e-09	-1.580435e+01	-9.345851e+01
2.640000e-06	-2.423381e-06	-1.654952e-09	-1.685680e+01	-1.053050e+02
2.650000e-06	-2.573751e-06	-1.831397e-09	-1.790276e+01	-1.164345e+02
2.660000e-06	-2.723080e-06	-1.988233e-09	-1.894148e+01	-1.267975e+02
2.670000e-06	-2.871487e-06	-2.127782e-09	-1.997378e+01	-1.364247e+02
2.680000e-06	-3.018984e-06	-2.261768e-09	-2.099976e+01	-1.453783e+02
2.690000e-06	-3.165368e-06	-2.390299e-09	-2.201799e+01	-1.536969e+02
2.700000e-06	-3.310550e-06	-2.507430e-09	-2.302786e+01	-1.613829e+02
2.710000e-06	-3.454568e-06	-2.612547e-09	-2.402964e+01	-1.684395e+02
2.720000e-06	-3.597324e-06	-2.712414e-09	-2.502263e+01	-1.749215e+02
2.730000e-06	-3.738651e-06	-2.808503e-09	-2.600569e+01	-1.809493e+02
2.740000e-06	-3.878616e-06	-2.897111e-09	-2.697927e+01	-1.866643e+02
2.750000e-06	-4.017182e-06	-2.976890e-09	-2.794313e+01	-1.921557e+02
2.760000e-06	-4.154172e-06	-3.051015e-09	-2.889602e+01	-1.974144e+02
2.770000e-06	-4.289602e-06	-3.125588e-09	-2.983805e+01	-2.023558e+02
2.780000e-06	-4.423458e-06	-3.197755e-09	-3.076914e+01	-2.068975e+02
2.790000e-06	-4.555806e-06	-3.262733e-09	-3.168974e+01	-2.110363e+02
2.800000e-06	-4.686597e-06	-3.322992e-09	-3.259951e+01	-2.148674e+02
2.810000e-06	-4.815692e-06	-3.383134e-09	-3.349748e+01	-2.185292e+02
2.820000e-06	-4.943095e-06	-3.438949e-09	-3.438368e+01	-2.221172e+02
2.830000e-06	-5.068720e-06	-3.487108e-09	-3.525752e+01	-2.256290e+02
2.840000e-06	-5.192583e-06	-3.530872e-09	-3.611910e+01	-2.289829e+02
2.850000e-06	-5.314630e-06	-3.573495e-09	-3.696804e+01	-2.320907e+02
2.860000e-06	-5.434711e-06	-3.618560e-09	-3.780332e+01	-2.349287e+02
2.870000e-06	-5.552663e-06	-3.660511e-09	-3.862378e+01	-2.375546e+02
2.880000e-06	-5.668409e-06	-3.695816e-09	-3.942890e+01	-2.400605e+02
2.890000e-06	-5.781874e-06	-3.728937e-09	-4.021815e+01	-2.425041e+02
2.900000e-06	-5.893051e-06	-3.763881e-09	-4.099148e+01	-2.448726e+02
2.910000e-06	-6.002075e-06	-3.798087e-09	-4.174984e+01	-2.471074e+02
2.920000e-06	-6.109021e-06	-3.827672e-09	-4.249375e+01	-2.491631e+02
2.930000e-06	-6.213904e-06	-3.854429e-09	-4.322331e+01	-2.510539e+02
2.940000e-06	-6.316586e-06	-3.877864e-09	-4.393755e+01	-2.528472e+02
