# Temperatura_=_33.12
# Concentracion g/m^3_=_5700.0
# C_Vs_to_Am_M_A/Vsm_=_65563218390.804596
# pendiente_HvsI_1/m_=_3716.3
# ordenada_HvsI_A/m_=_1297.0
# frecuencia_Hz_=_301596.9657202935

Tiempo_(s)	Campo_(V.s)	Magnetizacion_(V.s)	Campo_(kA/m)	Magnetizacion_(A/m)
0.000000e+00	-8.200794e-06	-4.229119e-09	-5.760621e+01	-2.826469e+02
1.000000e-08	-8.198494e-06	-4.234102e-09	-5.759005e+01	-2.823008e+02
2.000000e-08	-8.193395e-06	-4.233945e-09	-5.755423e+01	-2.821713e+02
3.000000e-08	-8.185758e-06	-4.229598e-09	-5.750058e+01	-2.823016e+02
4.000000e-08	-8.175340e-06	-4.226716e-09	-5.742741e+01	-2.825069e+02
5.000000e-08	-8.162048e-06	-4.220732e-09	-5.733404e+01	-2.824571e+02
6.000000e-08	-8.145856e-06	-4.207277e-09	-5.722029e+01	-2.818947e+02
7.000000e-08	-8.126894e-06	-4.161928e-09	-5.708709e+01	-2.808459e+02
8.000000e-08	-8.105413e-06	-4.120265e-09	-5.693621e+01	-2.796631e+02
9.000000e-08	-8.080957e-06	-4.218654e-09	-5.676441e+01	-2.788393e+02
1.000000e-07	-8.053158e-06	-4.299592e-09	-5.656914e+01	-2.786926e+02
1.100000e-07	-8.022285e-06	-4.271879e-09	-5.635228e+01	-2.791307e+02
1.200000e-07	-7.988571e-06	-4.265013e-09	-5.611545e+01	-2.796668e+02
1.300000e-07	-7.952142e-06	-4.302497e-09	-5.585956e+01	-2.797013e+02
1.400000e-07	-7.913383e-06	-4.186534e-09	-5.558730e+01	-2.788968e+02
1.500000e-07	-7.872337e-06	-4.022132e-09	-5.529897e+01	-2.774012e+02
1.600000e-07	-7.828430e-06	-4.196575e-09	-5.499055e+01	-2.757652e+02
1.700000e-07	-7.781665e-06	-4.094919e-09	-5.466205e+01	-2.746011e+02
1.800000e-07	-7.732130e-06	-4.090194e-09	-5.431409e+01	-2.742068e+02
1.900000e-07	-7.679488e-06	-4.241026e-09	-5.394431e+01	-2.743977e+02
2.000000e-07	-7.623915e-06	-4.115070e-09	-5.355394e+01	-2.746510e+02
2.100000e-07	-7.565520e-06	-4.166665e-09	-5.314374e+01	-2.744525e+02
2.200000e-07	-7.504440e-06	-4.097308e-09	-5.271469e+01	-2.736095e+02
2.300000e-07	-7.440756e-06	-4.090465e-09	-5.226735e+01	-2.723267e+02
2.400000e-07	-7.374228e-06	-4.087209e-09	-5.180002e+01	-2.710159e+02
2.500000e-07	-7.304971e-06	-4.047245e-09	-5.131353e+01	-2.699937e+02
2.600000e-07	-7.233065e-06	-4.075096e-09	-5.080842e+01	-2.692822e+02
2.700000e-07	-7.158392e-06	-4.053412e-09	-5.028389e+01	-2.686401e+02
2.800000e-07	-7.080902e-06	-4.080250e-09	-4.973956e+01	-2.677757e+02
2.900000e-07	-7.000642e-06	-3.993038e-09	-4.917578e+01	-2.665690e+02
3.000000e-07	-6.917798e-06	-3.989259e-09	-4.859385e+01	-2.651419e+02
3.100000e-07	-6.832652e-06	-4.006344e-09	-4.799574e+01	-2.637382e+02
3.200000e-07	-6.745254e-06	-3.962738e-09	-4.738181e+01	-2.625224e+02
3.300000e-07	-6.655463e-06	-3.975351e-09	-4.675108e+01	-2.614574e+02
3.400000e-07	-6.563258e-06	-3.926573e-09	-4.610338e+01	-2.603479e+02
3.500000e-07	-6.468667e-06	-3.901454e-09	-4.543893e+01	-2.590058e+02
3.600000e-07	-6.371726e-06	-3.886984e-09	-4.475798e+01	-2.574009e+02
3.700000e-07	-6.272426e-06	-3.878103e-09	-4.406045e+01	-2.556807e+02
3.800000e-07	-6.170845e-06	-3.849606e-09	-4.334690e+01	-2.540485e+02
3.900000e-07	-6.067049e-06	-3.828990e-09	-4.261779e+01	-2.526017e+02
4.000000e-07	-5.961104e-06	-3.835479e-09	-4.187358e+01	-2.512572e+02
4.100000e-07	-5.853080e-06	-3.803025e-09	-4.111476e+01	-2.498181e+02
4.200000e-07	-5.742910e-06	-3.768958e-09	-4.034088e+01	-2.481251e+02
4.300000e-07	-5.630595e-06	-3.719109e-09	-3.955193e+01	-2.461732e+02
4.400000e-07	-5.516141e-06	-3.702240e-09	-3.874795e+01	-2.441046e+02
4.500000e-07	-5.399520e-06	-3.692644e-09	-3.792875e+01	-2.420895e+02
4.600000e-07	-5.280797e-06	-3.667238e-09	-3.709478e+01	-2.401915e+02
4.700000e-07	-5.160123e-06	-3.627771e-09	-3.624711e+01	-2.383208e+02
4.800000e-07	-5.037615e-06	-3.594395e-09	-3.538656e+01	-2.363078e+02
4.900000e-07	-4.913305e-06	-3.575417e-09	-3.451335e+01	-2.340342e+02
5.000000e-07	-4.787167e-06	-3.542289e-09	-3.362730e+01	-2.315189e+02
5.100000e-07	-4.659304e-06	-3.500619e-09	-3.272913e+01	-2.288953e+02
5.200000e-07	-4.529859e-06	-3.455194e-09	-3.181985e+01	-2.263039e+02
5.300000e-07	-4.398777e-06	-3.427153e-09	-3.089906e+01	-2.237871e+02
5.400000e-07	-4.266088e-06	-3.397068e-09	-2.996699e+01	-2.212655e+02
5.500000e-07	-4.131859e-06	-3.351030e-09	-2.902410e+01	-2.186062e+02
5.600000e-07	-3.996066e-06	-3.297619e-09	-2.807023e+01	-2.157231e+02
5.700000e-07	-3.858796e-06	-3.255872e-09	-2.710599e+01	-2.126294e+02
5.800000e-07	-3.720006e-06	-3.222102e-09	-2.613106e+01	-2.094077e+02
5.900000e-07	-3.579661e-06	-3.175689e-09	-2.514521e+01	-2.061300e+02
6.000000e-07	-3.437898e-06	-3.115690e-09	-2.414940e+01	-2.027998e+02
6.100000e-07	-3.294805e-06	-3.057285e-09	-2.314425e+01	-1.993601e+02
6.200000e-07	-3.150472e-06	-3.009078e-09	-2.213039e+01	-1.957540e+02
6.300000e-07	-3.004989e-06	-2.959682e-09	-2.110845e+01	-1.919798e+02
6.400000e-07	-2.858474e-06	-2.898098e-09	-2.007926e+01	-1.880888e+02
6.500000e-07	-2.710990e-06	-2.834828e-09	-1.904326e+01	-1.841282e+02
6.600000e-07	-2.562558e-06	-2.780136e-09	-1.800060e+01	-1.800807e+02
6.700000e-07	-2.413284e-06	-2.726684e-09	-1.695203e+01	-1.758584e+02
6.800000e-07	-2.263210e-06	-2.661119e-09	-1.589785e+01	-1.713633e+02
6.900000e-07	-2.112334e-06	-2.583895e-09	-1.483802e+01	-1.665656e+02
7.000000e-07	-1.960707e-06	-2.507625e-09	-1.377292e+01	-1.615350e+02
7.100000e-07	-1.808440e-06	-2.435634e-09	-1.270333e+01	-1.563911e+02
7.200000e-07	-1.655601e-06	-2.358536e-09	-1.162971e+01	-1.512066e+02
7.300000e-07	-1.502153e-06	-2.273772e-09	-1.055183e+01	-1.459393e+02
7.400000e-07	-1.348064e-06	-2.186732e-09	-9.469434e+00	-1.404482e+02
7.500000e-07	-1.193482e-06	-2.098059e-09	-8.383574e+00	-1.345862e+02
7.600000e-07	-1.038516e-06	-2.009385e-09	-7.295022e+00	-1.283002e+02
7.700000e-07	-8.831107e-07	-1.908157e-09	-6.203382e+00	-1.216606e+02
7.800000e-07	-7.273073e-07	-1.799250e-09	-5.108946e+00	-1.147982e+02
7.900000e-07	-5.712089e-07	-1.695477e-09	-4.012438e+00	-1.077951e+02
8.000000e-07	-4.148940e-07	-1.594503e-09	-2.914409e+00	-1.006164e+02
8.100000e-07	-2.584039e-07	-1.481665e-09	-1.815149e+00	-9.313121e+01
8.200000e-07	-1.017658e-07	-1.353457e-09	-7.148504e-01	-8.520567e+01
8.300000e-07	5.489825e-08	-1.222312e-09	3.856310e-01	-7.678850e+01
8.400000e-07	2.114886e-07	-1.090269e-09	1.485595e+00	-6.791839e+01
8.500000e-07	3.680057e-07	-9.533561e-10	2.585044e+00	-5.864556e+01
8.600000e-07	5.243472e-07	-8.019147e-10	3.683259e+00	-4.893253e+01
8.700000e-07	6.804392e-07	-6.379925e-10	4.779723e+00	-3.862108e+01
8.800000e-07	8.362411e-07	-4.686396e-10	5.874148e+00	-2.750535e+01
8.900000e-07	9.917167e-07	-2.894724e-10	6.966281e+00	-1.546914e+01
9.000000e-07	1.146785e-06	-9.418409e-11	8.055556e+00	-2.592171e+00
9.100000e-07	1.301388e-06	1.116168e-10	9.141557e+00	1.085245e+01
9.200000e-07	1.455515e-06	3.196085e-10	1.022421e+01	2.451145e+01
9.300000e-07	1.609090e-06	5.233142e-10	1.130300e+01	3.809902e+01
9.400000e-07	1.762060e-06	7.245555e-10	1.237753e+01	5.148088e+01
9.500000e-07	1.914402e-06	9.299922e-10	1.344766e+01	6.464584e+01
9.600000e-07	2.066142e-06	1.132233e-09	1.451354e+01	7.759871e+01
9.700000e-07	2.217162e-06	1.320905e-09	1.557438e+01	9.026174e+01
9.800000e-07	2.367326e-06	1.496685e-09	1.662920e+01	1.024578e+02
9.900000e-07	2.516657e-06	1.668718e-09	1.767817e+01	1.139824e+02
1.000000e-06	2.665164e-06	1.836214e-09	1.872136e+01	1.247043e+02
1.010000e-06	2.812715e-06	1.991416e-09	1.975782e+01	1.346175e+02
1.020000e-06	2.959207e-06	2.130566e-09	2.078685e+01	1.438105e+02
1.030000e-06	3.104654e-06	2.260324e-09	2.180854e+01	1.523837e+02
1.040000e-06	3.248927e-06	2.385839e-09	2.282198e+01	1.603815e+02
1.050000e-06	3.391942e-06	2.502414e-09	2.382658e+01	1.677913e+02
1.060000e-06	3.533764e-06	2.604555e-09	2.482280e+01	1.745995e+02
1.070000e-06	3.674313e-06	2.696031e-09	2.581009e+01	1.808529e+02
1.080000e-06	3.813405e-06	2.783043e-09	2.678714e+01	1.866711e+02
1.090000e-06	3.951016e-06	2.869620e-09	2.775378e+01	1.921960e+02
1.100000e-06	4.087190e-06	2.953426e-09	2.871033e+01	1.975176e+02
1.110000e-06	4.221853e-06	3.030588e-09	2.965627e+01	2.026336e+02
1.120000e-06	4.355040e-06	3.104559e-09	3.059183e+01	2.074727e+02
1.130000e-06	4.486701e-06	3.176702e-09	3.151668e+01	2.119621e+02
1.140000e-06	4.616680e-06	3.242192e-09	3.242972e+01	2.160877e+02
1.150000e-06	4.745018e-06	3.297652e-09	3.333122e+01	2.199063e+02
1.160000e-06	4.871719e-06	3.347712e-09	3.422123e+01	2.235063e+02
1.170000e-06	4.996742e-06	3.399062e-09	3.509945e+01	2.269551e+02
1.180000e-06	5.119997e-06	3.453004e-09	3.596525e+01	2.302723e+02
1.190000e-06	5.241390e-06	3.502879e-09	3.681797e+01	2.334450e+02
1.200000e-06	5.360913e-06	3.548941e-09	3.765756e+01	2.364624e+02
1.210000e-06	5.478468e-06	3.595499e-09	3.848332e+01	2.393362e+02
1.220000e-06	5.593889e-06	3.644003e-09	3.929409e+01	2.420893e+02
1.230000e-06	5.707119e-06	3.687761e-09	4.008947e+01	2.447274e+02
1.240000e-06	5.818274e-06	3.725005e-09	4.087027e+01	2.472256e+02
1.250000e-06	5.927438e-06	3.757857e-09	4.163709e+01	2.495458e+02
1.260000e-06	6.034518e-06	3.790116e-09	4.238927e+01	2.516757e+02
1.270000e-06	6.139393e-06	3.824230e-09	4.312596e+01	2.536534e+02
1.280000e-06	6.242048e-06	3.856435e-09	4.384706e+01	2.555539e+02
1.290000e-06	6.342470e-06	3.887016e-09	4.455247e+01	2.574433e+02
1.300000e-06	6.440479e-06	3.919374e-09	4.524093e+01	2.593342e+02
1.310000e-06	6.536080e-06	3.954723e-09	4.591248e+01	2.611779e+02
1.320000e-06	6.629476e-06	3.989365e-09	4.656853e+01	2.629016e+02
1.330000e-06	6.720565e-06	4.017605e-09	4.720839e+01	2.644615e+02
1.340000e-06	6.809235e-06	4.038882e-09	4.783125e+01	2.658737e+02
1.350000e-06	6.895530e-06	4.060097e-09	4.843742e+01	2.671987e+02
1.360000e-06	6.979463e-06	4.084386e-09	4.902700e+01	2.684960e+02
1.370000e-06	7.061002e-06	4.107616e-09	4.959978e+01	2.697845e+02
1.380000e-06	7.140014e-06	4.129338e-09	5.015479e+01	2.710393e+02
1.390000e-06	7.216364e-06	4.151020e-09	5.069111e+01	2.722223e+02
1.400000e-06	7.289960e-06	4.173166e-09	5.120808e+01	2.733179e+02
1.410000e-06	7.360862e-06	4.195378e-09	5.170613e+01	2.743421e+02
1.420000e-06	7.429230e-06	4.214145e-09	5.218638e+01	2.753199e+02
1.430000e-06	7.494921e-06	4.229539e-09	5.264782e+01	2.762549e+02
1.440000e-06	7.557904e-06	4.243968e-09	5.309025e+01	2.771202e+02
1.450000e-06	7.618356e-06	4.259319e-09	5.351489e+01	2.778831e+02
1.460000e-06	7.676158e-06	4.274298e-09	5.392092e+01	2.785404e+02
1.470000e-06	7.731201e-06	4.286634e-09	5.430757e+01	2.791327e+02
1.480000e-06	7.783230e-06	4.298113e-09	5.467304e+01	2.797199e+02
1.490000e-06	7.832064e-06	4.309885e-09	5.501608e+01	2.803357e+02
1.500000e-06	7.878014e-06	4.322266e-09	5.533885e+01	2.809589e+02
1.510000e-06	7.921165e-06	4.334923e-09	5.564196e+01	2.815284e+02
1.520000e-06	7.961489e-06	4.346496e-09	5.592522e+01	2.819910e+02
1.530000e-06	7.999141e-06	4.356385e-09	5.618970e+01	2.823438e+02
1.540000e-06	8.034013e-06	4.363435e-09	5.643466e+01	2.826347e+02
1.550000e-06	8.065985e-06	4.368625e-09	5.665925e+01	2.829199e+02
1.560000e-06	8.095203e-06	4.373395e-09	5.686448e+01	2.832151e+02
1.570000e-06	8.121570e-06	4.378436e-09	5.704970e+01	2.834833e+02
1.580000e-06	8.144943e-06	4.383979e-09	5.721388e+01	2.836730e+02
1.590000e-06	8.165514e-06	4.390176e-09	5.735838e+01	2.837725e+02
1.600000e-06	8.183220e-06	4.395319e-09	5.748276e+01	2.838287e+02
1.610000e-06	8.197888e-06	4.398976e-09	5.758579e+01	2.839071e+02
1.620000e-06	8.209457e-06	4.402514e-09	5.766706e+01	2.840222e+02
1.630000e-06	8.217893e-06	4.405969e-09	5.772632e+01	2.841031e+02
1.640000e-06	8.223456e-06	4.407477e-09	5.776539e+01	2.840372e+02
1.650000e-06	8.226213e-06	4.407522e-09	5.778476e+01	2.837703e+02
1.660000e-06	8.226101e-06	4.407331e-09	5.778397e+01	2.833839e+02
1.670000e-06	8.223253e-06	4.401117e-09	5.776397e+01	2.830698e+02
1.680000e-06	8.217623e-06	4.399591e-09	5.772442e+01	2.829988e+02
1.690000e-06	8.209248e-06	4.398814e-09	5.766559e+01	2.831671e+02
1.700000e-06	8.198056e-06	4.395541e-09	5.758697e+01	2.833457e+02
1.710000e-06	8.183913e-06	4.396159e-09	5.748762e+01	2.831995e+02
1.720000e-06	8.167176e-06	4.416746e-09	5.737005e+01	2.825176e+02
1.730000e-06	8.148065e-06	4.462183e-09	5.723581e+01	2.814003e+02
1.740000e-06	8.126172e-06	4.375544e-09	5.708202e+01	2.802528e+02
1.750000e-06	8.100707e-06	4.267601e-09	5.690315e+01	2.795579e+02
1.760000e-06	8.071331e-06	4.265662e-09	5.669680e+01	2.795589e+02
1.770000e-06	8.038730e-06	4.243016e-09	5.646779e+01	2.800675e+02
1.780000e-06	8.003765e-06	4.203280e-09	5.622218e+01	2.805420e+02
1.790000e-06	7.966622e-06	4.380721e-09	5.596127e+01	2.804091e+02
1.800000e-06	7.927392e-06	4.403026e-09	5.568570e+01	2.794257e+02
1.810000e-06	7.885819e-06	4.226162e-09	5.539367e+01	2.778442e+02
1.820000e-06	7.841338e-06	4.376978e-09	5.508122e+01	2.762624e+02
1.830000e-06	7.794140e-06	4.246705e-09	5.474968e+01	2.752531e+02
1.840000e-06	7.743986e-06	4.239187e-09	5.439737e+01	2.750143e+02
1.850000e-06	7.690540e-06	4.273946e-09	5.402194e+01	2.752671e+02
1.860000e-06	7.634230e-06	4.141425e-09	5.362639e+01	2.754584e+02
1.870000e-06	7.575261e-06	4.308041e-09	5.321217e+01	2.751226e+02
1.880000e-06	7.513725e-06	4.210046e-09	5.277991e+01	2.741556e+02
1.890000e-06	7.449402e-06	4.257240e-09	5.232808e+01	2.728298e+02
1.900000e-06	7.382219e-06	4.212077e-09	5.185616e+01	2.715615e+02
1.910000e-06	7.312252e-06	4.132517e-09	5.136467e+01	2.706140e+02
1.920000e-06	7.239417e-06	4.195986e-09	5.085305e+01	2.699422e+02
1.930000e-06	7.163887e-06	4.101417e-09	5.032249e+01	2.692729e+02
1.940000e-06	7.085609e-06	4.184602e-09	4.977262e+01	2.683355e+02
1.950000e-06	7.004772e-06	4.084439e-09	4.920479e+01	2.670633e+02
1.960000e-06	6.921498e-06	4.096289e-09	4.861983e+01	2.656193e+02
1.970000e-06	6.835589e-06	4.094857e-09	4.801637e+01	2.642469e+02
1.980000e-06	6.747166e-06	4.011893e-09	4.739524e+01	2.630727e+02
1.990000e-06	6.656442e-06	4.043598e-09	4.675796e+01	2.620161e+02
2.000000e-06	6.563538e-06	3.990640e-09	4.610535e+01	2.608678e+02
2.010000e-06	6.468303e-06	4.030829e-09	4.543638e+01	2.594639e+02
2.020000e-06	6.370691e-06	3.960532e-09	4.475071e+01	2.578164e+02
2.030000e-06	6.270799e-06	3.938409e-09	4.404902e+01	2.560983e+02
2.040000e-06	6.168612e-06	3.887737e-09	4.333121e+01	2.545025e+02
2.050000e-06	6.064153e-06	3.871682e-09	4.259744e+01	2.530893e+02
2.060000e-06	5.957592e-06	3.869964e-09	4.184891e+01	2.517412e+02
2.070000e-06	5.848964e-06	3.824892e-09	4.108586e+01	2.502558e+02
2.080000e-06	5.738174e-06	3.816176e-09	4.030762e+01	2.485006e+02
2.090000e-06	5.625229e-06	3.767431e-09	3.951423e+01	2.465074e+02
2.100000e-06	5.510125e-06	3.761416e-09	3.870569e+01	2.444367e+02
2.110000e-06	5.392879e-06	3.704550e-09	3.788210e+01	2.424457e+02
2.120000e-06	5.273573e-06	3.674417e-09	3.704404e+01	2.405646e+02
2.130000e-06	5.152338e-06	3.631819e-09	3.619242e+01	2.386768e+02
2.140000e-06	5.029262e-06	3.619630e-09	3.532788e+01	2.366128e+02
2.150000e-06	4.904392e-06	3.582484e-09	3.445074e+01	2.342797e+02
2.160000e-06	4.777706e-06	3.533557e-09	3.356084e+01	2.317267e+02
2.170000e-06	4.649265e-06	3.488202e-09	3.265861e+01	2.290992e+02
2.180000e-06	4.519158e-06	3.447575e-09	3.174467e+01	2.265236e+02
2.190000e-06	4.387508e-06	3.417757e-09	3.081990e+01	2.240147e+02
2.200000e-06	4.254384e-06	3.368687e-09	2.988478e+01	2.214736e+02
2.210000e-06	4.119628e-06	3.325989e-09	2.893819e+01	2.187693e+02
2.220000e-06	3.983313e-06	3.276429e-09	2.798065e+01	2.158356e+02
2.230000e-06	3.845516e-06	3.241925e-09	2.701270e+01	2.127055e+02
2.240000e-06	3.706308e-06	3.185633e-09	2.603484e+01	2.094664e+02
2.250000e-06	3.565746e-06	3.128135e-09	2.504746e+01	2.061788e+02
2.260000e-06	3.423870e-06	3.069515e-09	2.405086e+01	2.028300e+02
2.270000e-06	3.280685e-06	3.027661e-09	2.304507e+01	1.993570e+02
2.280000e-06	3.136230e-06	2.978627e-09	2.203034e+01	1.957116e+02
2.290000e-06	2.990634e-06	2.916633e-09	2.100761e+01	1.919060e+02
2.300000e-06	2.844005e-06	2.845655e-09	1.997762e+01	1.879965e+02
2.310000e-06	2.696458e-06	2.782208e-09	1.894118e+01	1.840205e+02
2.320000e-06	2.548044e-06	2.722111e-09	1.789865e+01	1.799434e+02
2.330000e-06	2.398748e-06	2.652754e-09	1.684993e+01	1.756686e+02
2.340000e-06	2.248554e-06	2.576794e-09	1.579490e+01	1.711066e+02
2.350000e-06	2.097538e-06	2.500376e-09	1.473409e+01	1.662490e+02
2.360000e-06	1.945639e-06	2.430778e-09	1.366707e+01	1.611831e+02
2.370000e-06	1.793020e-06	2.352352e-09	1.259501e+01	1.560266e+02
2.380000e-06	1.639877e-06	2.267147e-09	1.151926e+01	1.508311e+02
2.390000e-06	1.486138e-06	2.180519e-09	1.043933e+01	1.455286e+02
2.400000e-06	1.331827e-06	2.102905e-09	9.355378e+00	1.399673e+02
2.410000e-06	1.177087e-06	2.015914e-09	8.268411e+00	1.340135e+02
2.420000e-06	1.022032e-06	1.915019e-09	7.179228e+00	1.276411e+02
2.430000e-06	8.666597e-07	1.803998e-09	6.087822e+00	1.209417e+02
2.440000e-06	7.109506e-07	1.698738e-09	4.994049e+00	1.140446e+02
2.450000e-06	5.550066e-07	1.599309e-09	3.898625e+00	1.070100e+02
2.460000e-06	3.989532e-07	1.489188e-09	2.802433e+00	9.977728e+01
2.470000e-06	2.427502e-07	1.363723e-09	1.705191e+00	9.220603e+01
2.480000e-06	8.639211e-08	1.235506e-09	6.068585e-01	8.417474e+01
2.490000e-06	-6.998936e-08	1.112658e-09	-4.916379e-01	7.565416e+01
2.500000e-06	-2.263181e-07	9.818737e-10	-1.589764e+00	6.669411e+01
2.510000e-06	-3.825125e-07	8.360238e-10	-2.686947e+00	5.733334e+01
2.520000e-06	-5.385414e-07	6.822882e-10	-3.782966e+00	4.750772e+01
2.530000e-06	-6.943524e-07	5.274223e-10	-4.877455e+00	3.703932e+01
2.540000e-06	-8.498994e-07	3.615593e-10	-5.970090e+00	2.572941e+01
2.550000e-06	-1.005224e-06	1.734186e-10	-7.061161e+00	1.349773e+01
2.560000e-06	-1.160218e-06	-3.320279e-11	-8.149912e+00	4.700354e-01
2.570000e-06	-1.314707e-06	-2.414128e-10	-9.235118e+00	-1.305115e+01
2.580000e-06	-1.468673e-06	-4.454510e-10	-1.031665e+01	-2.671538e+01
2.590000e-06	-1.622101e-06	-6.509376e-10	-1.139440e+01	-4.026589e+01
2.600000e-06	-1.774912e-06	-8.610382e-10	-1.246781e+01	-5.360088e+01
2.610000e-06	-1.927107e-06	-1.066147e-09	-1.353690e+01	-6.672278e+01
2.620000e-06	-2.078639e-06	-1.259255e-09	-1.460133e+01	-7.962501e+01
2.630000e-06	-2.229396e-06	-1.447837e-09	-1.566032e+01	-9.220645e+01
2.640000e-06	-2.379247e-06	-1.636077e-09	-1.671294e+01	-1.042758e+02
2.650000e-06	-2.528168e-06	-1.818366e-09	-1.775903e+01	-1.156365e+02
2.660000e-06	-2.676283e-06	-1.982303e-09	-1.879946e+01	-1.261825e+02
2.670000e-06	-2.823552e-06	-2.124896e-09	-1.983395e+01	-1.359332e+02
2.680000e-06	-2.969819e-06	-2.257972e-09	-2.086139e+01	-1.449873e+02
2.690000e-06	-3.114969e-06	-2.387456e-09	-2.188100e+01	-1.534369e+02
2.700000e-06	-3.258965e-06	-2.509050e-09	-2.289249e+01	-1.613121e+02
2.710000e-06	-3.401791e-06	-2.617915e-09	-2.389577e+01	-1.685939e+02
2.720000e-06	-3.543261e-06	-2.720278e-09	-2.488952e+01	-1.752775e+02
2.730000e-06	-3.683318e-06	-2.818861e-09	-2.587334e+01	-1.814268e+02
2.740000e-06	-3.822016e-06	-2.911125e-09	-2.684763e+01	-1.871721e+02
2.750000e-06	-3.959256e-06	-2.993287e-09	-2.781167e+01	-1.926499e+02
2.760000e-06	-4.095087e-06	-3.065849e-09	-2.876580e+01	-1.979318e+02
2.770000e-06	-4.229430e-06	-3.138024e-09	-2.970949e+01	-2.029967e+02
2.780000e-06	-4.362156e-06	-3.211553e-09	-3.064182e+01	-2.077668e+02
2.790000e-06	-4.493379e-06	-3.282142e-09	-3.156359e+01	-2.121779e+02
2.800000e-06	-4.623048e-06	-3.346070e-09	-3.247445e+01	-2.162321e+02
2.810000e-06	-4.751110e-06	-3.406230e-09	-3.337402e+01	-2.199974e+02
2.820000e-06	-4.877529e-06	-3.463137e-09	-3.426204e+01	-2.235620e+02
2.830000e-06	-5.002195e-06	-3.513589e-09	-3.513775e+01	-2.269836e+02
2.840000e-06	-5.125099e-06	-3.557724e-09	-3.600109e+01	-2.302725e+02
2.850000e-06	-5.246250e-06	-3.599755e-09	-3.685211e+01	-2.334133e+02
2.860000e-06	-5.365435e-06	-3.644360e-09	-3.768932e+01	-2.363993e+02
2.870000e-06	-5.482469e-06	-3.689510e-09	-3.851142e+01	-2.392465e+02
2.880000e-06	-5.597338e-06	-3.729781e-09	-3.931831e+01	-2.419765e+02
2.890000e-06	-5.709980e-06	-3.765301e-09	-4.010956e+01	-2.445888e+02
2.900000e-06	-5.820385e-06	-3.802183e-09	-4.088510e+01	-2.470529e+02
2.910000e-06	-5.928657e-06	-3.838713e-09	-4.164566e+01	-2.493329e+02
2.920000e-06	-6.034892e-06	-3.870393e-09	-4.239190e+01	-2.514263e+02
2.930000e-06	-6.139109e-06	-3.898342e-09	-4.312396e+01	-2.533817e+02
2.940000e-06	-6.241160e-06	-3.924439e-09	-4.384082e+01	-2.552767e+02
